nome;type;mean;standard deviation;meadian;percentile 25;percentile 75
ID1_F;ECG;-0.009019463294671308;0.36302867688665946;-0.05243050141358612;-0.10722310834264955;-0.003199421296692412
 ;EMGZ;-9.891473414356611e-08;0.04326232303001275;-9.806253002034933e-05;-0.010016267015775964;0.009707770837982303
 ;EMGMF;-1.5895366851278458e-07;0.018619851287278704;0.0005396425895609024;-0.010116147444746145;0.010694984075588946
 ;EDA;1.837710104751521;0.23675391790546246;1.7844708700638612;1.6207862412555416;2.0097460468169777
ID1_N;ECG;-0.011427514406028641;0.42535199229053977;-0.05942339862945217;-0.12507623154731343;-0.004252897038394078
 ;EMGZ;-2.6512230791758427e-07;0.032763296672527614;0.00016722597727366261;-0.02771139334504621;0.027741289375737676
 ;EMGMF;1.4348471401315435e-07;0.03523072676642636;4.339222312515958e-05;-0.030112874360174055;0.030163621073171398
 ;EDA;1.6757900974349547;0.07726367468262123;1.6803393091523267;1.6063356962436601;1.736552149064932
ID1_H;ECG;-0.0006302959227185438;0.3235883237602372;-0.044752258992280025;-0.10016963762072637;0.006598122138663831
 ;EMGZ;-6.544767157045455e-07;0.058274341659669576;2.1611306470523594e-05;-0.014681452695547713;0.014584597959197674
 ;EMGMF;9.068609287211075e-07;0.013661038045739305;-0.00028719438432694934;-0.006493715074316796;0.0062433280097044545
 ;EDA;1.434529647593713;0.0638017941946376;1.446600246452372;1.388834950160845;1.4673125952216788
ID2_H;ECG;-0.009218209758937756;0.3462828133657035;-0.10161796652085206;-0.16846739173319697;0.07667175920178197
 ;EMGZ;6.026819832320938e-07;0.050410684638828744;4.833208534465658e-05;-0.02819403113155674;0.02810608215661747
 ;EMGMF;-8.74330387116368e-10;0.002365828619017946;-3.0505215969426052e-05;-0.0013106092383076379;0.0012341896383600342
 ;EDA;0.8038370489403297;0.0781426934396776;0.7746903783542138;0.7368763271950733;0.8618583964068642
ID2_N;ECG;-0.011665344247244422;0.39206678100700565;-0.08271788820124004;-0.17378886085672154;0.09979308990146957
 ;EMGZ;-4.487965615126127e-08;0.0346588542509867;0.00017491215012595002;-0.009462544304675361;0.009629344332774237
 ;EMGMF;2.768433435903924e-07;0.012989057285265391;-0.000532136803062901;-0.006065237892610638;0.0052528963208887565
 ;EDA;0.8875577707597706;0.08530569269585528;0.9067556273078964;0.7916245225689734;0.946411522863571
ID2_F;ECG;-0.013495366086390737;0.3998672060951732;-0.08335768449957122;-0.1809387672777577;0.10979837559886509
 ;EMGZ;2.145724333782802e-07;0.047406444066637674;0.00045314164041984867;-0.00886547417453731;0.00928431008711303
 ;EMGMF;1.1673144293448632e-07;0.0422395855497385;0.000305244770346698;-0.02826351236424331;0.02760180803274062
 ;EDA;0.5366135071740021;0.1167156608868819;0.4654630767774638;0.4236912100109312;0.6397838961507221
ID4_F;ECG;-0.009492329463184906;0.3512196759389692;-0.05056449737557643;-0.1314310969917022;0.020876486680813995
 ;EMGZ;-2.534077108867318e-06;0.0649117604916397;0.000337367503846657;-0.03841575565603135;0.03850004361118896
 ;EMGMF;-6.069221420425269e-07;0.033976547987780915;-4.717346310241825e-06;-0.02104051017634295;0.020685468034723598
 ;EDA;0.5958488847835276;0.13065676175001356;0.6492443687959886;0.4658234650974363;0.6849238357569152
ID4_H;ECG;-0.0065107126504925904;0.8166535454173655;-0.05951601945888166;-0.12149243709069205;0.03533444899363264
 ;EMGZ;1.137582409066428e-06;0.09850442186586103;0.00025413921301326026;-0.07465300532413438;0.07488798212992712
 ;EMGMF;-7.69644243292165e-08;0.06402029030451785;-6.387150703416992e-05;-0.039341572506524536;0.03907741394273337
 ;EDA;0.46201529406316355;0.21171363205422863;0.6201420108221458;0.25032196845926874;0.6798315105366775
ID4_N;ECG;-0.008320730341518019;0.5569630713492841;-0.05950699273435643;-0.12206690393855552;0.02595623861982986
 ;EMGZ;2.4067202684428855e-07;0.05214919876857756;0.0001031131027748218;-0.04147987837052877;0.04151131879329568
 ;EMGMF;1.046536348562497e-06;0.018063704873787;-0.0001564458458420788;-0.0066950285367946795;0.005970504429602254
 ;EDA;0.3810952974935029;0.1496742023424702;0.5171110519185855;0.23173680771025212;0.5278741080668411
ID7_N;ECG;-0.010670473890192166;0.2443735129742063;-0.07196850316929612;-0.13229757290808072;0.054787956657572134
 ;EMGZ;3.714263542218547e-07;0.01649471542213634;8.754000925721966e-05;-0.015336561361561949;0.015294738684167433
 ;EMGMF;-1.923543884526151e-08;0.009763303476466175;8.455794087490541e-05;-0.005557165534704954;0.0055266885232402455
 ;EDA;0.7488976929587788;0.12036439295047095;0.7466571299856106;0.6494857157994819;0.8244073293828303
ID7_F;ECG;-0.006077234608994732;0.24371201701237843;-0.05344204305086258;-0.11337974862680719;0.053399309286826596
 ;EMGZ;-2.8262525489382666e-08;0.03864644278866217;-0.00024084565774556022;-0.021244528969786864;0.020750798447050297
 ;EMGMF;4.3934536541730036e-07;0.052219897669729495;8.244211244956036e-05;-0.03641069379730927;0.03649219420021494
 ;EDA;0.3652979722290483;0.04453146168936525;0.36701206901736594;0.33025246053637414;0.3892346355743163
ID7_H;ECG;-0.010993847095953259;0.20356518740162036;-0.04921893461795423;-0.09408625825463843;0.024095167531668432
 ;EMGZ;2.128807975104167e-07;0.03869836692826042;-4.6610872760751245e-05;-0.006097819870164906;0.005605033761165093
 ;EMGMF;7.722231982513738e-07;0.03213667699403884;0.00012442083965834446;-0.009065300218158727;0.009008978924640497
 ;EDA;0.4875861562905879;0.14343019595065545;0.43457274169803206;0.3919872930760838;0.612864543703558
ID8_H;ECG;-0.010270473001895814;0.24665204143791714;-0.05394448166138363;-0.10125605999360458;0.024375423042305458
 ;EMGZ;4.778369723666675e-07;0.026437890761808157;0.000109777894971878;-0.019059943381232052;0.01915831467172968
 ;EMGMF;-5.904255318072487e-08;0.011487938031041527;0.00030779925210582904;-0.006744080949095685;0.007031572033495664
 ;EDA;0.9288596331105274;0.26068148697852583;0.7599599335921419;0.6642035825655008;1.1558197088794484
ID8_N;ECG;-0.009114886204785606;0.1836286374068171;-0.045181082686994514;-0.07965033532252712;0.027421607284038182
 ;EMGZ;1.220218837876406e-07;0.030565329640068074;0.0001590774836846584;-0.01487474795874194;0.014835717987487765
 ;EMGMF;8.42370972213498e-07;0.009539078082106836;2.4030516720805004e-05;-0.005886266998371273;0.005856783148878027
 ;EDA;0.17051631924833185;0.041833428598429485;0.19166565585209544;0.1289145715847625;0.21094048817437355
ID8_F;ECG;-0.008326231242486748;0.16883468805054894;-0.0399855355736112;-0.07939786001095128;0.04025554985315162
 ;EMGZ;1.2365821850455928e-06;0.01947324163496288;0.00014453810671669239;-0.012748595256490147;0.01269281529836894
 ;EMGMF;-2.8349874718843205e-08;0.008843058834661962;0.00013237604950912577;-0.005747189403476056;0.005775216257164505
 ;EDA;0.5060173154549635;0.37357912088562306;0.15827987329155824;0.14026328998723012;0.8589404518065231
ID10_N;ECG;-0.0073166064622677395;0.4163360331406578;-0.04446872973276751;-0.10266045177927496;0.035557533807237834
 ;EMGZ;-3.5465023960351265e-07;0.08006775638720763;-6.300003324472719e-05;-0.011010593490233126;0.010670938739076142
 ;EMGMF;1.8660160558921568e-06;0.04968979101208835;-3.1837508947564486e-06;-0.03444933566958353;0.03453010275863435
 ;EDA;1.0903665250117358;0.18584251918729325;1.179046606808578;0.9002833929515383;1.2535255220361867
ID10_H;ECG;-0.00713430437866682;0.2402323691933596;-0.05273288082407619;-0.1013874393579951;0.0363228472439673
 ;EMGZ;1.6542239423388015e-07;0.05334433992862554;-0.00018918741685248445;-0.012159608898045756;0.011619909485506083
 ;EMGMF;1.7554173439801886e-07;0.026306203679160103;-0.0003157317666474533;-0.010305035610985051;0.009797236206380427
 ;EDA;1.0583760421458575;0.27612635454931367;1.068544656975976;0.8762224889388393;1.3130286347420712
ID10_F;ECG;-0.00881252560173002;0.22474758790593719;-0.05096083616501405;-0.09633786468536135;0.02637121586592593
 ;EMGZ;8.74928201849023e-07;0.030588019811410544;1.8667200226655124e-07;-0.006948853693640364;0.006711863989444084
 ;EMGMF;2.3623623442865068e-07;0.025072766334165653;-0.00026952859672308956;-0.011767037702834519;0.01136978329434257
 ;EDA;0.7725861736884596;0.19608932391603165;0.8245950032082954;0.6864485685221772;0.8784852345341314
ID11_H;ECG;-0.010470459997752136;0.3299817604395998;-0.052837147287435327;-0.1400035875330776;0.15256481175534164
 ;EMGZ;3.0380087667734065e-07;0.018328425122502448;0.0001058962303204711;-0.007011188262709677;0.007046450524666428
 ;EMGMF;-2.887705781033005e-07;0.01653110952359281;8.360500723419897e-05;-0.012498731606347397;0.012518932674169987
 ;EDA;0.5028897535594993;0.06700993359911468;0.5000753474991027;0.460247446404317;0.5395218565570666
ID11_F;ECG;-0.011718041535480075;0.32838449196000996;-0.039342260991099935;-0.13869448824536101;0.1587507111642131
 ;EMGZ;-5.933421654319124e-06;0.15295638221521826;0.00019818895119472907;-0.10852356469028379;0.10846990952654753
 ;EMGMF;1.308865033032912e-06;0.027661933494071388;5.971433104877107e-05;-0.01626059926882783;0.0161447294689223
 ;EDA;0.9858770177637401;0.2985118395456414;0.8557401451711071;0.6859613255933912;1.2619416481022268
ID11_N;ECG;-0.01849191865212851;0.34305729123782686;-0.0503379308575976;-0.17811482596660844;0.1767449114332552
 ;EMGZ;1.952910751810047e-06;0.06445547835849244;0.00029642537842964993;-0.03511297690681051;0.03507202609243749
 ;EMGMF;-2.5746956337221344e-08;0.00948581500840541;5.263355221808111e-05;-0.004935738646546768;0.004970445847279683
 ;EDA;1.0405493382613145;0.1471726479543599;1.0246083323565216;0.9645115435565575;1.0792487253870497
ID12_F;ECG;-0.006091692956779065;0.26138364313984813;-0.08992332377216233;-0.16950298163156116;0.1080709314190534
 ;EMGZ;-7.975142057212455e-07;0.03157642171748503;0.00013227215280204544;-0.022584346690769128;0.02235768087896576
 ;EMGMF;-1.2998800880880832e-06;0.03507006097579651;-0.000995691629446306;-0.016210608810734106;0.014804145957916643
 ;EDA;0.9120507992090577;0.17245755113088754;0.946179196497601;0.7581116861409077;1.0265916095531176
ID12_N;ECG;-0.008270210771659195;0.27771157451685774;-0.09262134761318366;-0.17797497336297383;0.10514730324014086
 ;EMGZ;-1.4051032484707773e-06;0.03139560754491039;5.40426546409541e-05;-0.02070356171970473;0.020670938244325122
 ;EMGMF;1.589733865971201e-06;0.027234370681060178;-4.063391629479003e-05;-0.01938987206114645;0.019315381889129284
 ;EDA;0.14615049256018864;0.049576947969068995;0.12142186309081289;0.09599619583948715;0.1921890033492893
ID12_H;ECG;-0.009048144351950418;0.31799497484413125;-0.08528234585832159;-0.1585516571614361;0.08733300302285239
 ;EMGZ;-1.9344672514539167e-06;0.09594991469601838;-2.362544309294015e-05;-0.04491438379248791;0.04463579145761984
 ;EMGMF;7.448893098549845e-07;0.026128745886380443;-0.00023667858080013838;-0.012656247659712997;0.012447022908161002
 ;EDA;0.3691070614201411;0.11339670661866365;0.39926634582541776;0.2626686662944625;0.45975375729103185
ID16_F;ECG;-0.007624538146635629;0.2861709315531046;-0.06560081699980558;-0.13304415430801775;0.014477572174785356
 ;EMGZ;8.246317464632671e-07;0.03340245984283068;0.00010873681141238076;-0.011922250809198906;0.011914805854835434
 ;EMGMF;-2.781720688653573e-06;0.06041444703100793;7.57356300670857e-05;-0.024731420975967554;0.0248700091763487
 ;EDA;0.3766280884685739;0.26330699249066714;0.12100665021226197;0.11851071662861397;0.6286456789795621
ID16_H;ECG;-0.011934437070254812;0.41929905270680784;-0.05997329354662684;-0.14927655196574136;0.05901738947886545
 ;EMGZ;9.981204238642793e-07;0.07348634508270595;0.00016645156536288517;-0.02058445095572835;0.020411326547072034
 ;EMGMF;-1.3693370775143138e-06;0.029441472850061903;5.402906194369164e-05;-0.013384661477861985;0.0132449329611842
 ;EDA;0.4227454235851441;0.14301070847614844;0.3340209366510609;0.32421260937839963;0.5994423350691506
ID16_N;ECG;-0.005225698042648741;0.37971146802946765;-0.06425171527886053;-0.16968539722657414;0.05330702366346321
 ;EMGZ;5.136623149199726e-07;0.030384362781423837;7.610419262715773e-05;-0.00906596470873618;0.00903400176276127
 ;EMGMF;-2.1465334416086353e-07;0.015982922859578145;-0.0003279053496238894;-0.00703750430134905;0.006457008648956842
 ;EDA;0.14830919572032997;0.014029869602453197;0.1575812015406234;0.13399695708484036;0.16220400096833015
ID17_N;ECG;-0.004255693079860062;0.27289452275533044;-0.05595794494845787;-0.12982173748259054;0.10564296548559561
 ;EMGZ;2.4379656633600253e-06;0.06505656933206135;7.639874189878983e-05;-0.005007948007103927;0.005070108722548504
 ;EMGMF;7.435341430982445e-07;0.023746441551970518;-7.065026090476677e-06;-0.01581073790938131;0.01587362935199685
 ;EDA;1.2073370127085041;0.34163345470999074;1.3903599658146037;0.8611809115186553;1.5305407713355397
ID17_H;ECG;-0.00813293341604537;0.31832822122496296;-0.07481046616084105;-0.16883203438734873;0.11444613844766133
 ;EMGZ;-2.2063099220405866e-06;0.09203547282878524;0.0002582696242930823;-0.048647958292087144;0.0489677258071337
 ;EMGMF;1.2689765008170043e-07;0.011418834603081969;-7.10731557546215e-07;-0.00616445595932073;0.0061883464666342035
 ;EDA;0.7108278792703763;0.1396203325338486;0.6992278047398199;0.5845936354745045;0.8242390843627325
ID17_F;ECG;-0.00991235196689596;0.5929745464257417;-0.07888350975966055;-0.14515410589938213;0.09770316787806275
 ;EMGZ;-1.1838396522798276e-06;0.014959383961356135;7.212314921580925e-05;-0.005841559539648536;0.0058487831346436
 ;EMGMF;1.4026421347413124e-07;0.011083396096240716;-8.50475687518633e-06;-0.004132987748695629;0.004112089707697086
 ;EDA;0.8344081952726756;0.09703634972242496;0.8637568321127553;0.7371592833655103;0.9140135648245775
ID18_N;ECG;-0.014492428591467132;0.6089830509372389;-0.08285177648371139;-0.14407775799226222;0.021065635885056236
 ;EMGZ;2.0615345158504707e-06;0.04795550892031252;6.295336802393916e-05;-0.012183405253766785;0.012104859921154803
 ;EMGMF;6.447883849557987e-07;0.027995532772624645;3.050983448610648e-05;-0.010655081226818472;0.01060940325368441
 ;EDA;1.8160696396359328;0.08421512051057857;1.8394443848453252;1.729630881955222;1.8877570823063718
ID18_F;ECG;-0.006464856788285782;0.5522729166914766;-0.07436834220452182;-0.14813245341137105;0.05210514873616859
 ;EMGZ;1.7375086104526948e-06;0.04712449327306383;0.00020257711558053452;-0.02523277637323279;0.02536472358847603
 ;EMGMF;4.198915192966717e-07;0.012618750060334336;0.00030760519323330237;-0.006413586300736319;0.006620538058038325
 ;EDA;1.7861825071704154;0.29427302689486584;1.6007749762304169;1.4981499911255114;2.0510226264903717
ID18_H;ECG;-0.006904248349128101;0.3725441860198546;-0.08652151255428975;-0.14683364010963998;0.0017785708371649924
 ;EMGZ;1.911719034462663e-06;0.040306534803761083;0.00015243629534182623;-0.023025819078799095;0.02316358947623721
 ;EMGMF;-1.687353247953403e-07;0.026174707016248192;-0.00018784264324208093;-0.003983496689695521;0.003418945103667486
 ;EDA;0.9235881058099866;0.09197023309220122;0.896477448349982;0.847642259401511;0.9845153266619562
ID20_N;ECG;-0.007407006545746609;0.446711692738862;-0.05897908695895217;-0.15433416847550666;0.10171248398567961
 ;EMGZ;8.563455106290433e-07;0.05780736830237698;-7.324541791393381e-05;-0.013020206717299776;0.012933757232956426
 ;EMGMF;-2.2613775974626685e-06;0.035949711668042277;-3.9610437661004696e-06;-0.009539334690485943;0.00953408305129859
 ;EDA;1.0207314398273464;0.3535547685724128;0.7393901892935355;0.6892777974764237;1.3181531622262532
ID20_F;ECG;-0.00031250954767799994;0.5733710751766058;-0.025896624655559773;-0.17785269124076825;0.1633672617584162
 ;EMGZ;4.385866810454759e-07;0.03083832541900812;9.707697826636546e-05;-0.00737358357660716;0.0074117467104743455
 ;EMGMF;2.471751350715886e-07;0.016605649501469727;1.4397954353709318e-05;-0.004033461301905403;0.0040730988473275396
 ;EDA;0.9557179057145619;0.3641606112092718;0.7484033150788768;0.6330119706329671;1.3296933443183163
ID20_H;ECG;-0.010467821186178363;0.4443199079887179;-0.07672816705454236;-0.15113560506713752;0.07759274077881072
 ;EMGZ;8.808259518638467e-08;0.015928262716985008;4.496022851309864e-05;-0.005768641736491353;0.005734348710348794
 ;EMGMF;-1.7293052506677703e-07;0.020942554069387668;-0.0002369949023442035;-0.006129259922241361;0.005743940298911412
 ;EDA;0.5486301658991979;0.07344283819570312;0.5477749633905244;0.49556466552492257;0.6000039930270804
ID23_F;ECG;-0.0072698582132330195;0.37108501648857983;-0.06578848255769637;-0.15074768207152986;0.052740563602441816
 ;EMGZ;3.097088529205579e-07;0.05946102014048051;3.514711626145155e-05;-0.007957205716503848;0.007880368181889499
 ;EMGMF;-3.1298718306897236e-07;0.012456794758025072;-6.526584823018992e-05;-0.0063240402152358;0.006103767693480268
 ;EDA;0.8171348080836227;0.13706443310479055;0.7796126568299626;0.6800796490161952;0.9487478828150941
ID23_N;ECG;-0.012494178490434825;0.39643987874394965;-0.10133776294041534;-0.170310151950231;0.04521613599427746
 ;EMGZ;-3.91367586188013e-07;0.04857119408766464;0.00010098797577827689;-0.009928712207293109;0.009863075236911958
 ;EMGMF;8.114726171093717e-07;0.026376055844826708;6.183880664178878e-05;-0.01265717137466674;0.012694645410399172
 ;EDA;1.0806114428434266;0.05300481599435253;1.0914804508193443;1.0636145493855127;1.1101272612392328
ID23_H;ECG;-0.010776175464211049;0.4131802287987619;-0.12976551163831745;-0.1922427519803354;0.03470135737657746
 ;EMGZ;5.491447370508628e-07;0.06214210994766677;7.102458898386913e-05;-0.022095672267750503;0.022064585024428943
 ;EMGMF;2.763980585254458e-07;0.016324172913000985;2.256693510834426e-05;-0.006598994446612355;0.006610932717596888
 ;EDA;0.7095159246764975;0.11287236751872966;0.7176307425138058;0.6044593702473711;0.8094687289876976
ID25_F;ECG;-0.005251145310117337;0.3180788801334536;-0.0858323523503292;-0.15879776649964583;0.06726332242057806
 ;EMGZ;1.138315566718987e-07;0.04238311278350669;0.00010513670014396714;-0.009816058822442936;0.009902629845993889
 ;EMGMF;8.455338540047844e-07;0.0365616544015231;4.8478813392094366e-05;-0.02222602770373881;0.022192383242149616
 ;EDA;0.9627898713846272;0.09156659991299954;0.9437220696989643;0.8990680114117047;1.0042238608583038
ID25_N;ECG;-0.003949710846198785;0.3458630317704173;-0.09988072253439986;-0.17514586616556968;0.062011786532902666
 ;EMGZ;1.1286267392101796e-06;0.041904885726288615;3.05667092687068e-05;-0.005059234851843994;0.00502306157306653
 ;EMGMF;-1.4921314051009375e-06;0.03458288345544205;-2.4925817081441646e-05;-0.023694809844490725;0.02354056653573237
 ;EDA;1.1739523605171025;0.25444382836909696;1.312331853642517;0.9171437332533922;1.4111711716081998
ID25_H;ECG;-0.009506439888770701;0.34828624558994076;-0.10241536104246156;-0.1704069199953232;0.047863412737512066
 ;EMGZ;-1.267910114961458e-05;0.36952224866524985;5.297525019593973e-05;-0.04723160505718601;0.04746165887369372
 ;EMGMF;9.01510927046362e-07;0.03243026896890629;7.895764108863806e-06;-0.025616291654246195;0.02558660355893766
 ;EDA;1.0310694284248503;0.18580955659145587;0.9267864928163665;0.8856876860725895;1.1821260503909825
ID26_F;ECG;0.004383049556312736;0.31180904944099563;-0.008518810271039243;-0.08257827191169274;0.10841656086820682
 ;EMGZ;-8.476625763643534e-08;0.14075882602751114;3.803699740626801e-05;-0.004406192465449175;0.004386745779339245
 ;EMGMF;6.366826235765933e-07;0.029101431461724833;-0.0002517439831512761;-0.012466319769195185;0.011870304662037017
 ;EDA;0.7724741480925124;0.06991751572151385;0.7825668620126537;0.7207700240968836;0.7994528378974178
ID26_N;ECG;-0.008222279639296066;0.4365577068789525;0.006299986398207651;-0.06444214174565012;0.08457054969099131
 ;EMGZ;1.1605059085011453e-06;0.06745570803204115;1.318067628701576e-05;-0.02132487401351595;0.021218688391447162
 ;EMGMF;1.215063568831125e-06;0.03105632798546443;8.47783019114097e-05;-0.02185479737437751;0.022125439859605613
 ;EDA;1.1702407491532556;0.31927457896559575;1.373371581404582;0.8441930131289396;1.47380899859946
ID26_H;ECG;-0.008067079260744089;0.22349525948095758;-0.013824050932127524;-0.06561126095941815;0.06614606810409687
 ;EMGZ;-2.5185349649559295e-06;0.10434058976178348;4.418954709478227e-05;-0.02117023208032504;0.02116110215497992
 ;EMGMF;-1.8793694719059704e-07;0.039512166278310876;-0.0005018013430492236;-0.025631512300220257;0.02477578895887301
 ;EDA;0.758405246206645;0.16091590230112826;0.763738637860015;0.5979089150824248;0.9253523862153161
ID27_H;ECG;-0.00037286181373474847;0.3842709865436482;-0.08725184125713938;-0.1537807331500649;0.048766335652362686
 ;EMGZ;-7.010229118711624e-07;0.03727496203830574;0.000136061133988232;-0.005105930399607712;0.005230746197299071
 ;EMGMF;-9.241762564537296e-07;0.03630089157935319;-0.0010224639440028754;-0.019847219529345744;0.01827374197954134
 ;EDA;1.1825842334131116;0.20258444093474282;1.276043004021787;1.008612307373613;1.3546599660251524
ID27_N;ECG;0.003267748918383484;0.4103054658006985;-0.08272414046802395;-0.17734066233177787;0.07628424807999004
 ;EMGZ;-2.6492556295749834e-08;0.03985942458551076;-7.420909272675769e-05;-0.007207180441692808;0.006957542227657259
 ;EMGMF;2.3030799814852995e-07;0.021438853030993996;0.0001239811292438836;-0.01045253046385716;0.010280885550022247
 ;EDA;1.0744362467591821;0.0888608512055362;1.059025093215277;1.0135328531146677;1.1308098489136076
ID27_F;ECG;-0.0009791123875914035;0.3915976068159968;-0.08641615659803065;-0.15072912566179186;0.034853622376229555
 ;EMGZ;1.3666959934241608e-06;0.06564818232160871;-0.0001332843358826676;-0.006169605106279558;0.005591850091244249
 ;EMGMF;-1.113742871214236e-08;0.024072217209229446;1.8432131966919247e-05;-0.0099497555984455;0.009691380490771777
 ;EDA;0.6494332234633162;0.1433380027631136;0.6048108061520623;0.504008124027857;0.7777074231423975
ID31_N;ECG;-0.01516895305274122;0.39627057445887065;-0.08971586591069994;-0.15714886972636338;0.04166790276086585
 ;EMGZ;-1.1174131039257374e-06;0.05635868059529926;9.612218401194687e-05;-0.03579891920514377;0.035802289489469036
 ;EMGMF;-4.4913985665260005e-07;0.025176681813931782;-6.070564472727787e-05;-0.006455208305398351;0.0062559937317054936
 ;EDA;0.7154468942745432;0.3109483897437894;0.9041961411177393;0.4041509497234933;1.0263251174045118
ID31_F;ECG;0.012667482944800298;0.7757273837220411;-0.07298184549988325;-0.16282204586164892;0.06744969654033718
 ;EMGZ;5.4592642211521415e-08;0.010348977349746902;7.050005667832046e-05;-0.008175708418013312;0.008121627274363786
 ;EMGMF;-1.3897506258618454e-06;0.030922325133628407;0.0002021616365647078;-0.024152347001321847;0.02476042216661013
 ;EDA;1.4826445946801725;0.13233619052682286;1.478477709989379;1.360293652326907;1.5828513955984862
ID31_H;ECG;-0.006782413665587541;0.5827807790459387;-0.1132684092922336;-0.20136897436212156;0.07694066784900754
 ;EMGZ;8.173143535720025e-06;0.31228900130189857;6.61199479487333e-06;-0.02756073141853101;0.027622336985056013
 ;EMGMF;1.3849421887789482e-07;0.028836544948010637;-0.0005287358761087695;-0.010485808022816175;0.009304997702007024
 ;EDA;1.158821007102836;0.2136030597992732;1.3044493029440674;0.9457375600758333;1.3475417752516845
ID32_H;ECG;-0.002956315448334441;0.6370760906475572;-0.13150795858209793;-0.23155223880039272;0.011413518940388293
 ;EMGZ;-2.3975243769060692e-08;0.026931815969212278;0.0005016862195570445;-0.00845563074445565;0.009082775349254352
 ;EMGMF;-4.0889668462452433e-07;0.02951862640157035;-0.00012473756469276063;-0.011876533582405344;0.011450308130755552
 ;EDA;1.3430795594840788;0.2533969169873205;1.5087680347275882;1.0719236077632488;1.5932535291024255
ID32_F;ECG;-0.0011072348286143353;0.6361007780860531;-0.14037765945376662;-0.2513162162497943;0.016691362804912825
 ;EMGZ;4.1876510126552646e-07;0.024555394645693954;3.83069232607234e-05;-0.005966452002645617;0.005847990252921929
 ;EMGMF;5.872383871359068e-08;0.024043361645720216;5.691054444831442e-05;-0.008318840644688356;0.008253948339765366
 ;EDA;1.135648701985173;0.10888304123764933;1.154884389794531;1.0278244249201995;1.2324008251399952
ID32_N;ECG;-0.007136011051767758;0.6732208128472349;-0.14984383656964956;-0.2294448771286571;-0.0032244747041353865
 ;EMGZ;3.393043523206198e-07;0.028988297387679832;0.0001295655041008829;-0.009155268946940397;0.009281356790063488
 ;EMGMF;6.853503106474632e-07;0.019578776264124815;-0.0004134639793285089;-0.007632470274946739;0.0070083930533363595
 ;EDA;0.5181529088994224;0.2014677507080245;0.6709546402612843;0.3164430373504958;0.7226744483598802
ID34_F;ECG;-0.009386961686537893;0.33981138672522826;-0.0853997831204329;-0.16012876029034723;0.08326822433284624
 ;EMGZ;-6.709653454975693e-08;0.01736883368915168;4.09398820064229e-05;-0.005248845060418197;0.005255615745573332
 ;EMGMF;1.6181689695752905e-07;0.012779499416177344;2.6253497444147676e-05;-0.004525231792950973;0.004533615734095974
 ;EDA;1.3429772812068803;0.1488166930193167;1.2990527655134303;1.2523792619818572;1.38912158345688
ID34_H;ECG;-0.009506153034129692;0.5849546791017908;-0.08327491962590416;-0.15970006339527423;0.04272924280343021
 ;EMGZ;-2.2339651736466985e-08;0.013032924642857843;0.0001878809014645756;-0.005151383626044603;0.005327661119275422
 ;EMGMF;-8.706045860125069e-07;0.015247206092196491;3.4302910414050515e-05;-0.008263998177169897;0.008172938348266563
 ;EDA;0.6719421189577465;0.18692644020173624;0.6814431071147282;0.46998461684027415;0.8632993306188291
ID34_N;ECG;-0.010804951382982602;0.37833367599086537;-0.08521021505477679;-0.16038780791123025;0.04637886143800454
 ;EMGZ;-1.4475822815413092e-07;0.02743911609144152;7.880828487708219e-05;-0.004513978613309631;0.00459815019505872
 ;EMGMF;-1.0763121155108483e-06;0.01589827685371862;-4.750515883306214e-06;-0.003504386520063857;0.0033384442916966858
 ;EDA;0.6886225024764595;0.4254263366020606;0.6192021715487089;0.2764180931474055;1.1599549555605546
ID35_N;ECG;-0.010515221988322018;0.4916628749868508;-0.12679258347021138;-0.22486143671291536;0.0475065170526918
 ;EMGZ;-1.8983072275211499e-06;0.04238459471368551;-3.449778143574736e-06;-0.006426619354897111;0.0063002882608007744
 ;EMGMF;9.023039945585615e-06;1.2439157187088203;3.976212152018632e-05;-0.023009429616488025;0.016129033938712508
 ;EDA;0.7627752365555441;0.2422369247929698;0.8795296043467873;0.5274470859046768;0.9763597126489976
ID35_F;ECG;-0.00577091305951031;0.4798147832524636;-0.10658659262699624;-0.20149316886503735;0.03051467298869514
 ;EMGZ;-5.626400909677113e-06;0.07746781803690574;2.0629807855648895e-05;-0.005927592146325469;0.005723251515743324
 ;EMGMF;9.263775425571215e-08;0.014492349308518249;-2.175251148823175e-05;-0.004918770298569231;0.004519960819523616
 ;EDA;1.3648871346204432;0.1904692174185672;1.378329236214265;1.2059974570991185;1.50725727407475
ID35_H;ECG;-0.00674720676220778;0.4945758516750789;-0.11315912308936721;-0.20235887387433038;0.042398103476928975
 ;EMGZ;-2.0230695388762636e-06;0.06400398626988399;-0.00033319625897209053;-0.013270913582542463;0.01242763025011116
 ;EMGMF;4.932616961900791e-08;0.008709313045303781;-7.233920300068938e-05;-0.0027337229844660448;0.00260512754067831
 ;EDA;1.2662401445631715;0.19854500422661214;1.2560508677085767;1.1121241145593999;1.3960142525509587
ID302_N;ECG;0.008732723406965159;1.095487671235959;-0.07937315836620788;-0.15053275914910982;0.08725298126261699
 ;EMGZ;-8.309257727654054e-08;0.009609383246905405;6.740244134535093e-05;-0.006524344663418736;0.00650766928247784
 ;EMGMF;1.7657234810955486e-07;0.009713512158157685;4.1234781259148214e-05;-0.006587978184759755;0.006609704390961046
 ;EDA;0.9475578957172186;0.3314077459464792;0.9314128800170538;0.8369251613671789;0.9908194179913006
ID302_F;ECG;-0.03680272761343314;0.8334269752466215;-0.08554377680305245;-0.1909418346345531;0.07704129395934366
 ;EMGZ;-1.2012019598897535e-07;0.009157491912551994;8.907269619818477e-05;-0.006146286558818829;0.006164344225098676
 ;EMGMF;-1.727782938765589e-07;0.009206470685097716;4.501387182658771e-05;-0.006247641431356758;0.00624278825666017
 ;EDA;0.6923265701529069;0.17768743577030574;0.6832762445065319;0.5730981684598982;0.7798831508201347
ID302_H;ECG;-0.01730456906176105;0.26091676666720287;-0.09027619562108688;-0.15157176476456596;0.057416019046731645
 ;EMGZ;-1.9054898765252178e-07;0.00933381793360171;7.498610933724041e-05;-0.006300354617081028;0.006274324807858219
 ;EMGMF;-2.012922502034582e-07;0.00933625353211065;3.248369973684554e-05;-0.0062778768071599066;0.006335401946802304
 ;EDA;1.251308295793768;0.1906576284865361;1.2158520755380529;1.14361881502922;1.3015604970437282
ID303_N;ECG;-0.015642547783689342;0.4411547698890092;-0.07223020364596477;-0.20050766604153727;0.03189874690402571
 ;EMGZ;-5.809779927287028e-08;0.009736819205668514;6.458019801328855e-05;-0.006605587193646525;0.006580567402809482
 ;EMGMF;-1.0513666532501279e-07;0.009703104661792205;4.5993229743396214e-05;-0.006577994222639134;0.006595753764019738
 ;EDA;0.5992270362417389;0.32140162413539014;0.7962920465298067;0.25501358886215153;0.936671308983085
ID303_F;ECG;-0.016444838835889177;0.3651761003444958;-0.04937421700200707;-0.11169397393519076;0.007294763438397162
 ;EMGZ;-9.632156359359285e-08;0.009210063613375652;7.624876314967985e-05;-0.006205729560589952;0.006195077567735931
 ;EMGMF;-1.5165839191616768e-07;0.00931599118617684;2.663369254948464e-05;-0.006287588557567804;0.006298022827270256
 ;EDA;0.5650347234435666;0.17957689145007244;0.5367583460665248;0.3855058350985839;0.747204731909581
ID303_H;ECG;-0.010898114604530128;0.31700238277989745;-0.03172026830262064;-0.08150901364973487;-9.04090232323184e-05
 ;EMGZ;-1.0109715922483729e-07;0.009934529525852854;8.298178344085232e-05;-0.006769862989591427;0.006741062960016479
 ;EMGMF;-8.709903649923832e-08;0.00980830075362313;1.1690339016845031e-05;-0.006666487113014234;0.006697599357325806
 ;EDA;0.289713920013077;0.034008704252879475;0.2906677163326833;0.261962997471333;0.3019253065941263
ID306_F;ECG;-0.010423607411230029;0.2911553667041287;-0.09473299020830775;-0.16270744951980687;0.055566199862580004
 ;EMGZ;-4.322343109643118e-07;0.00991024897934937;5.950380198815972e-05;-0.00671672227716001;0.006677065693827437
 ;EMGMF;-3.757634049686153e-08;0.009886704529673315;4.260607755408267e-05;-0.006726162418998176;0.006741232096785763
 ;EDA;1.2007319950257784;0.32398584793331114;1.050529264220984;0.954964753090038;1.3074657756817607
ID306_H;ECG;-0.006713997234463237;0.3069115852235172;-0.09479249784203479;-0.1735606598320895;0.07532572044824316
 ;EMGZ;-2.1045489989750628e-07;0.009621773805250448;8.844149438350232e-05;-0.006535568244574779;0.006499640595601589
 ;EMGMF;-2.418810132514914e-07;0.009613454296948293;3.233921257572562e-05;-0.006529139057398397;0.006525906861251384
 ;EDA;1.5123151715505216;0.1786232914550332;1.4773364826157123;1.3944987817689676;1.5777074351690947
ID306_N;ECG;-0.005784146398046087;0.31633968265813417;-0.09375002570159056;-0.17135058244349582;0.06828292844944933
 ;EMGZ;-2.123489430200574e-07;0.009334765292986536;6.347103983639791e-05;-0.0062691292404735335;0.006248871623929259
 ;EMGMF;-1.775058807337627e-08;0.00936507866990587;2.9216103289529585e-05;-0.006350287201590472;0.006351565067929898
 ;EDA;0.9140849728148014;0.11892099287447665;0.8916143775709304;0.8323499044639884;0.9712324101354302
ID307_N;ECG;-0.021537749831811063;0.37438439943946067;-0.05801498703092425;-0.13365719996927955;-0.008807487922041439
 ;EMGZ;-7.48824411748923e-09;0.009398057314216723;9.127333500197571e-05;-0.006381123075976919;0.006352267190077195
 ;EMGMF;8.502679554893072e-08;0.009406498343207082;4.750200940431559e-05;-0.006368545950158527;0.006385163667862812
 ;EDA;0.6781499076903856;0.12260970484401061;0.6648649725309217;0.6227794933995318;0.7010758094353013
ID307_H;ECG;-0.0174867246472302;0.3686682155021524;-0.05238906431865757;-0.12363710024458732;-0.00999926277253005
 ;EMGZ;5.3914879973787955e-08;0.009333035604289363;9.741371488186697e-05;-0.006307044142850852;0.00627128928688221
 ;EMGMF;-2.0767074534884044e-07;0.009371040980572072;2.2154128224362692e-05;-0.006322244081691315;0.006347335201488068
 ;EDA;0.3425400196924117;0.14476986004965914;0.3474372836783047;0.21667095057832525;0.3900053917579206
ID307_F;ECG;0.020485585725780273;0.3538896675938492;-0.03124950497122177;-0.11070665501650967;0.03178381840765232
 ;EMGZ;1.4512170487950896e-07;0.009381418600236448;4.867323351537045e-05;-0.006337852400578367;0.006308033518934152
 ;EMGMF;-2.055700029260516e-07;0.009455301513085178;4.2630028449457515e-05;-0.006371960999380316;0.006412043099011818
 ;EDA;0.6468245249887425;0.2966177056314239;0.5801255114782242;0.3582604235933756;0.8910317986604669
ID308_H;ECG;-0.011535306260658133;0.5236367255511666;-0.11874681168220788;-0.21080646897473138;0.056939510819897225
 ;EMGZ;3.375306030728714e-07;0.009885725201085275;7.280610884181156e-05;-0.006737215588520574;0.006689895833034094
 ;EMGMF;3.4491748971899655e-07;0.009827303708315218;2.9544630578091534e-05;-0.006680868844168393;0.006694735154453703
 ;EDA;0.6396314741321968;0.1019485037595351;0.6176253297479721;0.5427738728498269;0.7421778248549477
ID308_F;ECG;-0.01044354576051936;0.4529977980781445;-0.1151626787839878;-0.20122727019135717;0.04349414437259416
 ;EMGZ;4.5841988332218306e-07;0.009442438550151686;6.592545491830365e-05;-0.0064049252233764654;0.006372855226174106
 ;EMGMF;7.724851407248831e-08;0.00947481485156269;5.478657857405501e-05;-0.006404886142723471;0.0064143982112943865
 ;EDA;2.035456761676283;0.2507498176526733;2.103109600364994;1.7951289486425432;2.2079688877998933
ID308_N;ECG;-0.014634862706821516;0.4114033511475893;-0.12450358291330295;-0.20411184197496554;0.036469982099324116
 ;EMGZ;9.707707858318103e-08;0.00970236030835697;8.34263203286674e-05;-0.0066116804292505734;0.006553606914915869
 ;EMGMF;2.628100568967471e-07;0.009694857801810534;5.216926641179922e-05;-0.006571250224899251;0.006575082867024044
 ;EDA;0.7585965469363327;0.4431490391492694;0.5477383399832547;0.5230163997911164;1.2147309383041651
ID309_F;ECG;-0.0077998520341563925;0.3118897624025582;-0.07159646485923316;-0.13603215285541193;0.010541271979346591
 ;EMGZ;-5.052788042417203e-07;0.009630138322748606;8.359041463932085e-05;-0.006530180335219775;0.006528997890278771
 ;EMGMF;-6.588921146634634e-07;0.009722656365998983;3.309297587622469e-05;-0.0065961483424886985;0.006612673426005647
 ;EDA;0.20334737102916298;0.18384910886930494;0.03247778898099758;0.03057015685071536;0.3555995596827172
ID309_H;ECG;-0.009299816251753051;0.25720184968300686;-0.06470757144589703;-0.12612516573912141;0.018215113695264268
 ;EMGZ;4.11610604032044e-07;0.009669132990041067;8.338329805346334e-05;-0.0065483182600528525;0.006542307209609567
 ;EMGMF;5.392598369635075e-07;0.00965324999751469;2.5842822935766177e-05;-0.006543890090507038;0.0065844593948296915
 ;EDA;0.08275013962506583;0.019431216167327292;0.06641665565325955;0.06368121025548219;0.10051987352330695
ID309_N;ECG;-0.012537553978812673;0.3229880779737528;-0.07355594978761193;-0.1406120238601688;0.005227465318937111
 ;EMGZ;-1.948389024958094e-07;0.009985896140611142;5.900601206508836e-05;-0.0068147743674012535;0.006766582946923251
 ;EMGMF;-2.580270560581261e-07;0.009968469466020832;1.4714885303515699e-05;-0.006775224279918112;0.0067717118359915274
 ;EDA;0.059846071398843896;0.005201768407107518;0.06136263733982299;0.054782573853710576;0.06531495398150425
ID311_N;ECG;-0.0016429775902899592;0.2790738559633467;-0.05726986590423676;-0.15021038366780048;0.13024506894388707
 ;EMGZ;1.2084709613734946e-07;0.009284505333427498;7.026319411782044e-05;-0.006281876503483864;0.006268167589805484
 ;EMGMF;2.8485115867762173e-07;0.009271437709117725;3.734394437547844e-05;-0.006241669650386929;0.006293741633709894
 ;EDA;1.3482521795801439;0.2783185126062642;1.2572832643007668;1.189626055888108;1.3389745001584392
ID311_F;ECG;-0.006839405951732472;0.2763843589520708;-0.06540069565053391;-0.14823745856567241;0.10216954740452072
 ;EMGZ;-9.773425661742154e-10;0.00891704963791337;5.9171850143646025e-05;-0.005973457865227024;0.005941827668360403
 ;EMGMF;-1.1359650119181744e-07;0.008994655664912504;2.424142710220125e-05;-0.00608420626848592;0.006083908175336321
 ;EDA;0.9727812402808176;0.2662066593598656;0.8322173827952931;0.7058628534076123;1.2167284759557488
ID311_H;ECG;-0.004215258407626659;0.4053838448346243;-0.057516213225251064;-0.15237622846522092;0.13088619328249446
 ;EMGZ;1.297685545657211e-07;0.009512814278123326;6.006828028876955e-05;-0.006417776911276349;0.006429721215940376
 ;EMGMF;-3.802315425799188e-08;0.009547664414425717;4.097269859712005e-05;-0.006456974175246044;0.006503258775921913
 ;EDA;0.8025394059438706;0.27188074445707977;0.7923826285328501;0.524022050358121;0.8381478220828981
ID312_N;ECG;-0.01235840030354068;0.33253191036493307;-0.09609901963067363;-0.16031813919153165;0.028650526556881016
 ;EMGZ;2.832169014626194e-07;0.009384925352333935;6.866381345251596e-05;-0.00634553719535114;0.006327016286974116
 ;EMGMF;9.742029642348138e-09;0.009485176740925918;1.4440933731616444e-05;-0.006398635287825978;0.006463255986148809
 ;EDA;0.4351230594552316;0.025307840104596413;0.42974187899658145;0.41473175499322706;0.450459816657782
ID312_F;ECG;-0.022430500503180836;0.38873152503120867;-0.09853245692465934;-0.17819731361354493;0.042980401623407265
 ;EMGZ;-6.892993190459791e-08;0.009366958924575064;7.737752229167519e-05;-0.006231934210026848;0.006232160963243279
 ;EMGMF;1.151970286707274e-07;0.009385397005603592;2.6530571639008324e-05;-0.006357020892519768;0.006369893058166615
 ;EDA;0.7982848940280105;0.09029782624974769;0.7805998871157827;0.7220419021971383;0.8553402603146116
ID312_H;ECG;-0.012773691128566815;0.376717244174859;-0.09074232508156385;-0.1746144827756968;0.03161226380687236
 ;EMGZ;-4.6861651800610705e-07;0.009400464969336926;5.544860767959213e-05;-0.006382757651810366;0.006338103275564417
 ;EMGMF;-4.569860367950868e-07;0.009381535392443859;3.1898391669287184e-05;-0.006370481390016117;0.006371707629283136
 ;EDA;0.7243560846860401;0.04793517061082755;0.7232929384787428;0.6845238370455675;0.7621167628538026
ID314_F;ECG;-0.010225572964874844;0.41767060216224444;-0.09338240315132576;-0.2146454325049058;0.09957280462083237
 ;EMGZ;2.443866889475181e-07;0.009618697794805823;7.760505236961972e-05;-0.0065348512297064235;0.006494464698575945
 ;EMGMF;2.3005138564425661e-07;0.009689092442842695;2.0126318030230708e-05;-0.006555089964875216;0.006612808173296358
 ;EDA;1.8461371352401799;0.2880911809147641;1.761128179229578;1.5507653891341917;2.1160153054229065
ID314_H;ECG;-0.0035722624957418582;0.304643236428083;-0.08030727575343694;-0.14767247303250508;0.060854471041706285
 ;EMGZ;2.031315745145579e-07;0.00981349176831823;7.599052248328099e-05;-0.006670444540603117;0.006641810657304494
 ;EMGMF;-2.288839050016718e-07;0.009775242031155438;3.234861475711519e-05;-0.006643224280434047;0.0066524993721166995
 ;EDA;0.5891116801263696;0.14953449663893562;0.4895120138863893;0.4380389814560012;0.7349880761167193
ID314_N;ECG;-0.006704541417825263;0.37037673240686464;-0.10637450481472327;-0.18626767368837338;0.06917043837012728
 ;EMGZ;7.240566342679432e-08;0.010136928890084463;8.814195912870216e-05;-0.00691704606233902;0.006893119488553692
 ;EMGMF;1.4546864753025828e-07;0.010007213051408921;3.875255056286068e-05;-0.006805113215308779;0.006814251788903091
 ;EDA;1.1087921294611003;0.367666972107817;0.954153225379231;0.7406994283843161;1.4648900192727674
ID315_H;ECG;-0.008795711635560017;0.4623691373225912;-0.11987260823058647;-0.197673859836702;0.051104030647273965
 ;EMGZ;-1.885159585919843e-07;0.01009203748242105;8.094931248907051e-05;-0.006885166707325995;0.006861427453354756
 ;EMGMF;3.643739272699553e-07;0.00997643328247927;3.9888861251813134e-05;-0.006792722738745012;0.006786668948254476
 ;EDA;0.46131192192371034;0.031984623337092274;0.460830454736435;0.4415187725697751;0.47633463865068076
ID315_F;ECG;-0.011128512678700957;0.5294308042603421;-0.13926730976979812;-0.21144674754447473;0.05521530223766712
 ;EMGZ;1.7945707126325856e-07;0.009568176688842687;7.600218209304406e-05;-0.0065055682056309235;0.006451407381792008
 ;EMGMF;-1.2941365565800335e-07;0.009576486742872991;6.363553607179328e-05;-0.006473398344848264;0.006498745206897442
 ;EDA;0.473111823271562;0.05189825713740716;0.466846819676088;0.4444597304463402;0.4854958526763892
ID315_N;ECG;-0.00662173326988801;0.4912916383969794;-0.0827748301314487;-0.1758973660568942;0.07795682184621094
 ;EMGZ;2.1387046014243237e-07;0.009718656547077601;6.238995580897064e-05;-0.006507838058720808;0.00648169393813679
 ;EMGMF;-2.2136147681110107e-07;0.009562954619203066;6.36334972667137e-05;-0.0064957580429333885;0.006482778842121183
 ;EDA;0.38538978364239773;0.0224476476368386;0.3866183035754398;0.37600932884490446;0.4018084843181904
ID316_F;ECG;-0.00862429134158197;0.4438942341045153;-0.1007229889376498;-0.18704767897896885;0.04959069268509953
 ;EMGZ;1.6123968456426426e-07;0.008996841697263332;5.93880257544199e-05;-0.006081728287441316;0.00606311601498653
 ;EMGMF;9.145994780283887e-09;0.0090234061547817;1.5049158084305897e-05;-0.00607707044294217;0.006127976419130932
 ;EDA;1.5614790778937204;0.12187343529713823;1.5713727417671475;1.4633668534579993;1.6473389065487063
ID316_N;ECG;-0.017678298530419485;0.42196384006634297;-0.11122807963562406;-0.19682473323617705;0.017102988026664098
 ;EMGZ;-8.180697307264543e-08;0.008878788477587569;6.606217260765991e-05;-0.005949824665071869;0.005939494161613532
 ;EMGMF;2.235561676590173e-08;0.008938833614264402;1.7167017194355972e-05;-0.006030081938940029;0.0060359305417864405
 ;EDA;0.47209389864383816;0.18743113233163922;0.442903681625219;0.31427101040938843;0.5633611711932958
ID316_H;ECG;-0.022061361466393713;0.43094145882876544;-0.10119420807647003;-0.20657064642370093;0.0336504867483643
 ;EMGZ;-5.172089271692329e-07;0.008969072478929585;6.346423812397415e-05;-0.006020123795774315;0.006024635344816966
 ;EMGMF;-1.923920112269254e-07;0.009065196108938352;3.302139848598032e-05;-0.006101545167548274;0.006141111696687407
 ;EDA;0.6442231105403621;0.26693590621801017;0.44987693404433915;0.3924041611090792;0.8709878036626912
ID317_F;ECG;-0.011911176914914518;0.34897440960195625;-0.05157659601931473;-0.13056790749080616;0.05383628401615037
 ;EMGZ;-2.906213567276996e-07;0.009456528991301585;6.742050267262184e-05;-0.006421063596082672;0.006398464343957211
 ;EMGMF;-3.7678522334566775e-07;0.00945778807845322;3.675862709400609e-05;-0.006393782774213283;0.006392826617298904
 ;EDA;1.3931488366129405;0.4530452243977666;1.4743770386571993;1.1701643263532504;1.7317256837694657
ID317_N;ECG;-0.006991846348689577;0.2831941328001462;-0.05803075205828877;-0.12178407677082662;0.052596112501265876
 ;EMGZ;-2.379851911206406e-07;0.009273614394273237;6.975077153276816e-05;-0.006257999278345477;0.0062338994904876325
 ;EMGMF;8.369348349734196e-08;0.00919786881438012;2.7225404389337416e-05;-0.006192847530024445;0.006213068514940493
 ;EDA;0.8635732769465068;0.4391744958439787;1.101130781854218;0.4161945391869298;1.2984387932659096
ID317_H;ECG;-0.013403892920704518;0.3319206086422661;-0.04286920213379018;-0.10570876857516777;0.05568680767447255
 ;EMGZ;-2.0578263026396725e-07;0.009239939605927058;7.658683556895627e-05;-0.006243415341846989;0.006205348924613902
 ;EMGMF;4.789629100193256e-07;0.009257946658356024;4.5214666555768064e-05;-0.006258869139338781;0.006250045473966841
 ;EDA;0.28341390141453326;0.25831416999005524;0.255894885203116;-0.01602470388305261;0.3453492911683995
ID318_H;ECG;-0.010431203918605119;0.31011657292485334;-0.061604765367764214;-0.11307474147549207;-0.004410832091180681
 ;EMGZ;-2.209126563311276e-07;0.009156003973790147;6.855426350069616e-05;-0.006168132215741102;0.006129433732549578
 ;EMGMF;6.006375718252735e-08;0.009266460837875511;1.793224864939612e-05;-0.006286421891389933;0.006298744324897807
 ;EDA;0.45478509856089355;0.09452659787224711;0.4937367252719199;0.3453937302405774;0.5332006900796713
ID318_N;ECG;0.00010709055627991603;0.27877336629216787;-0.0452464574634891;-0.10636941192757329;0.0244853616534927
 ;EMGZ;-4.941321578957595e-07;0.009761381943238164;7.165681633854604e-05;-0.0066227916738932045;0.006594516955645589
 ;EMGMF;-1.0736544760407095e-07;0.00969670363506272;3.166029053068694e-05;-0.00660538089484453;0.006616028349286313
 ;EDA;0.528580485710493;0.19326321555694895;0.4566167525591238;0.38371472674687174;0.5983936119475634
ID318_F;ECG;-0.018345015649617307;0.5902075072774545;-0.06522944491176394;-0.1572871586995288;0.05497400071075598
 ;EMGZ;-2.310986071908923e-07;0.009293097237795641;4.972392030433339e-05;-0.00628479742894511;0.006253701681195502
 ;EMGMF;-2.433326406247622e-07;0.009384828161798102;5.5604821085498534e-05;-0.006342762123119888;0.006358914044691883
 ;EDA;0.2849283569849084;0.0648655093168565;0.29992538159425636;0.2210853699029986;0.33388007352788873
ID319_H;ECG;-0.009889635606048212;0.27446438078444196;-0.06636779291751732;-0.12510413115371402;0.04322314295975803
 ;EMGZ;-2.9682179325291035e-07;0.009172150499030854;7.201502531798537e-05;-0.00617186879830702;0.00614589181346613
 ;EMGMF;1.8194076592870256e-07;0.00923326772717895;3.528334767510062e-05;-0.006221107913059091;0.0062744570741103695
 ;EDA;0.6880798839093946;0.09894652032157315;0.6427093855905397;0.5982454771085705;0.787430426650578
ID319_N;ECG;-0.001329680398065744;0.30288989043681536;-0.07155831592394334;-0.13039732135493382;0.046458798200120936
 ;EMGZ;-1.3294741993614938e-07;0.009496769001814401;5.770993972264299e-05;-0.006418944953661474;0.0063765664697025895
 ;EMGMF;1.1133265405908808e-07;0.009535918965480944;3.6418859804156965e-05;-0.0064651092593562155;0.006479792440421057
 ;EDA;0.5423796888945402;0.11178107304804084;0.5209264227703512;0.44822319962358137;0.6479942677474566
ID319_F;ECG;-0.01406398711017285;0.4456998335113428;-0.11940059063327282;-0.20238216962471617;0.04278757213676103
 ;EMGZ;3.1740912557851565e-07;0.00984728961323354;8.86463781635073e-05;-0.006706675853883659;0.006679998633257956
 ;EMGMF;3.0433687958136556e-07;0.009806469076024133;1.5226531755139927e-05;-0.006628220347323823;0.0066581015275392445
 ;EDA;1.304295944473617;0.30664210988673046;1.204551930514302;1.0117644258416623;1.5592854851074864
ID322_N;ECG;-0.010325354950173685;0.48712975434626865;-0.08508885062333733;-0.1724534059164184;-0.006540152049739501
 ;EMGZ;1.4111449506334464e-07;0.009275631949996171;7.481880954259874e-05;-0.00629234631560563;0.006252823002992028
 ;EMGMF;-2.507017706696089e-07;0.009370365191522049;5.9977273467697175e-05;-0.00633876063077647;0.006346417466447015
 ;EDA;1.4069399839860692;0.08411993860820519;1.395231706965188;1.355214474147716;1.4318309514997671
ID322_H;ECG;-0.011395647429602293;0.41561621438851176;-0.07758184284296349;-0.18321269477912563;0.04778822107756628
 ;EMGZ;8.842970751740889e-08;0.00915734595994271;6.974066326178766e-05;-0.006171051041280721;0.006141997762536053
 ;EMGMF;2.655862336341866e-07;0.009116616174194802;3.069657782741874e-05;-0.006148811682328855;0.006172850035779641
 ;EDA;0.8818030965870075;0.2012564865813787;0.7885156806986282;0.7134317338579497;1.080747657269303
ID322_F;ECG;-0.004549534833721888;0.46418746366563535;-0.0740333894845765;-0.1992587154066352;0.03392402645722045
 ;EMGZ;-2.686374907026632e-07;0.00919264216894095;7.005292045203471e-05;-0.0061960942286859635;0.006171027025018692
 ;EMGMF;-1.0613926663802224e-07;0.009130015019103595;2.091969883360632e-05;-0.006171181739910079;0.006205600435549724
 ;EDA;0.8317624837668344;0.19277142331104388;0.7917404395708587;0.6488975036627977;0.9446188821982917
ID323_H;ECG;-0.008596306135461529;0.2706835833080209;-0.05097069859806687;-0.12507681726566458;0.05064405137305726
 ;EMGZ;2.806674523535621e-07;0.009555353118901062;7.785951697378561e-05;-0.006457507933524249;0.006467031438336556
 ;EMGMF;8.866988493964176e-08;0.009815785739957167;4.1025885750288254e-05;-0.0066734167504785506;0.006661911548987341
 ;EDA;0.5771498801356153;0.06765722283305159;0.5669513476718668;0.5181537762620246;0.6259303164106172
ID323_N;ECG;-0.006314330621060194;0.24446409621860665;-0.0540855543326874;-0.10658902614275499;0.03109940456672356
 ;EMGZ;1.7392366820501461e-07;0.009835585544628421;5.324309483825207e-05;-0.006653739312763756;0.006612379427400682
 ;EMGMF;1.9298572387852638e-07;0.009819590131638273;4.353218481484549e-05;-0.006650963583141748;0.0066669827230505735
 ;EDA;0.2617002545306467;0.05636799973038084;0.2408044965668601;0.2189596268525119;0.2898200504375682
ID323_F;ECG;-0.004307397799919233;0.25778121048164393;-0.02835912976854643;-0.12414964724783602;0.05539345003593993
 ;EMGZ;-3.034273547777789e-07;0.010388723343092468;8.331167986483601e-05;-0.0071208570602141205;0.007110018049285437
 ;EMGMF;1.9009522838388453e-07;0.010148106890977985;3.878626166642016e-05;-0.006908133436575098;0.006957515225966503
 ;EDA;0.6781032082468917;0.3925222953539007;0.7993113366698623;0.5100073450324563;1.0007749779701596
ID324_N;ECG;-0.008826759742686147;0.1866565355550767;-0.020986760032720757;-0.06343767720436236;0.045194158104345704
 ;EMGZ;3.9390064067305227e-07;0.009306142690564484;6.448459310303919e-05;-0.00628164939081734;0.006283846563135199
 ;EMGMF;1.7339153980345235e-07;0.009290884000141482;4.590021862299577e-05;-0.006303306235970148;0.006302991384969535
 ;EDA;0.4065845457494673;0.04812845533085178;0.3968657769700802;0.3729739145406783;0.45531845614522737
ID324_F;ECG;-0.010736449899959097;0.31656577286662463;-0.00812981957861724;-0.0618479475484833;0.05580216030221266
 ;EMGZ;-2.557345878048227e-07;0.009299539392471717;7.679509264089598e-05;-0.00626916521114058;0.006240998366025525
 ;EMGMF;-3.591072487603642e-07;0.009248911639571993;5.165750940190877e-05;-0.006217532787640215;0.0062453795865777244
 ;EDA;0.3322602220880392;0.1206914680990037;0.24814976174477674;0.21039044596323603;0.4538253615793765
ID324_H;ECG;0.0017134057919462192;0.7056291390467434;-0.00895646235725265;-0.06143906538718075;0.040418173981164505
 ;EMGZ;9.482632699362517e-09;0.009349463427560146;9.209209950973194e-05;-0.006254468429629417;0.006247400604139325
 ;EMGMF;-1.611896879535904e-07;0.009680303486662883;3.522678146984496e-05;-0.006499177854138589;0.006548821011299515
 ;EDA;0.5071284855603375;0.050581805372399015;0.4752008442076176;0.4738686910199847;0.561282174763514
ID326_H;ECG;-0.007025209438465131;0.5796412415021761;-0.1207745565248764;-0.21456216003689466;0.00790594039819217
 ;EMGZ;-1.8756573983796607e-08;0.009670481965114197;5.720429620278771e-05;-0.00658633018665899;0.006533491081019946
 ;EMGMF;-2.093963050531886e-08;0.009702718439051492;2.7205838394437406e-05;-0.006596259692905844;0.006595213447225698
 ;EDA;0.4064670564935041;0.21125980689219068;0.5451919088529251;0.19637214388557472;0.6124547665297213
ID326_F;ECG;-0.00038717538301644123;0.5852305810783253;-0.0867177468913217;-0.17456271979111507;0.014525538138628311
 ;EMGZ;3.6135785644299967e-07;0.009407122927449274;6.747346593818677e-05;-0.00633562258225516;0.006307222178579241
 ;EMGMF;-3.023734323375281e-07;0.009460706251192436;2.3663126521631327e-05;-0.006368446496256025;0.006406816503423237
 ;EDA;0.3483873101551939;0.2934233251912275;0.4348273003775224;0.07519578336427817;0.4825662470195292
ID326_N;ECG;0.002481966960586834;0.5770364894205567;-0.10322131509397814;-0.20772590565792146;0.0687273840152873
 ;EMGZ;2.6644695899755157e-08;0.010347800993953889;7.685533514143915e-05;-0.007095832689125827;0.007080541079670727
 ;EMGMF;4.809733894601194e-07;0.01029372797003471;1.8194524535175734e-05;-0.007060890812042993;0.007060729640437972
 ;EDA;0.36210272704252194;0.4313286298166092;0.16406886913600272;0.15286156076307264;0.692879469385677
ID327_F;ECG;0.020855417401866853;0.711424183574623;-0.03028596605018128;-0.1117447380588092;0.08828142354656793
 ;EMGZ;-2.639370346195433e-07;0.009319552744364273;5.683635492803585e-05;-0.006304749922020945;0.006262471040263822
 ;EMGMF;-6.463261364534054e-08;0.009405503640291833;2.8615435471545173e-05;-0.006357616833258192;0.0063671754597128824
 ;EDA;1.0304879074598425;0.23220972027839987;1.0584761188143543;0.8060447013889811;1.2510744909177083
ID327_H;ECG;-0.01823562412781236;0.21956004058395467;-0.03991749077474318;-0.11527743592567592;0.07492212216814567
 ;EMGZ;-1.6578472861032886e-08;0.009189674769185908;6.170470532955269e-05;-0.0062181472331141584;0.006173413483709485
 ;EMGMF;1.1415023153140011e-07;0.009255097893917996;2.917419793546896e-05;-0.006245238446264345;0.006254900185144966
 ;EDA;0.58115995678195;0.3954768276770045;0.41362368944969796;0.3704204875414115;0.8668692562090764
ID327_N;ECG;-0.010919900469991918;0.31837223347785204;-0.048549178073796904;-0.11917728535962276;0.08968452448908008
 ;EMGZ;-1.704661687085945e-07;0.009351148767178257;7.211983867289886e-05;-0.006303964156817674;0.006278212840124562
 ;EMGMF;1.2822320951949689e-08;0.009297429688393151;3.8222779968243584e-05;-0.006265456682343089;0.006306344802597993
 ;EDA;0.5586502798282413;0.19413557196457737;0.5174363992007192;0.34853524289470883;0.7777468845664532
ID328_H;ECG;-0.011807136281229284;0.4104252204093657;-0.0884299383428701;-0.16149465948631248;0.06747334006958672
 ;EMGZ;-4.693032272793505e-07;0.00899667486629002;6.38700285959559e-05;-0.006039627371435582;0.0060303444136518645
 ;EMGMF;-2.4367590273483537e-07;0.009135367951806632;1.943671567290712e-05;-0.0061362868722524225;0.006169953638186261
 ;EDA;0.897218658730162;0.19949329808329713;0.9547718016719557;0.7052729863602185;1.1087546378139246
ID328_N;ECG;-4.130298843958769e-05;0.4523597811669569;-0.11299252024259798;-0.20627280634655348;0.09534478493464789
 ;EMGZ;-2.4974138485076937e-07;0.008937747262735891;9.057408510893797e-05;-0.00600745991904825;0.005994540680887491
 ;EMGMF;-3.126311121220295e-07;0.00908221254301805;1.748233913034282e-05;-0.006119722966271078;0.006134079606019555
 ;EDA;0.4850187942431251;0.08607874022536845;0.5184945147398679;0.40124494297073643;0.5698440545255781
ID328_F;ECG;-0.014833714423637241;0.441487909586454;-0.07749473752885078;-0.15299033212435206;0.08220135002719164
 ;EMGZ;1.8008403792255405e-07;0.009366970330936948;6.46989179100717e-05;-0.006320097189827057;0.006298920387224552
 ;EMGMF;2.755353000413823e-07;0.009516241426061797;6.097539551629344e-05;-0.006415511517137072;0.006442852623956042
 ;EDA;0.5815610371867184;0.2143880451407223;0.725603406400231;0.3658244584375164;0.7978951036075369
ID330_H;ECG;-0.011717359820494056;0.34549019383425283;-0.0726247728698577;-0.14738770946517932;0.0729156662932163
 ;EMGZ;7.97985291111127e-10;0.010185838269077022;6.96758540152248e-05;-0.00696067207855303;0.0069110205486387945
 ;EMGMF;-2.71469371230349e-08;0.010038288025462824;2.5696329406543674e-05;-0.006835382812012877;0.0068663094250975155
 ;EDA;1.6367111989719771;0.5153228874420238;1.2929875853168493;1.1730721441410825;2.1245713916214957
ID330_F;ECG;0.0059417595438027195;0.353132998111517;-0.0745111614718314;-0.16057987384822708;0.10905607368029652
 ;EMGZ;-1.1652957965358479e-07;0.00962672328258139;0.00010185774983141431;-0.006517825764473996;0.006501572416187568
 ;EMGMF;-1.2600701236770464e-07;0.009622356585732596;3.330969569272324e-05;-0.006518850899079393;0.006517123690102502
 ;EDA;1.7527309375625966;0.5654764096702312;1.45494580820725;1.1822918392335575;2.294067726241017
ID330_N;ECG;-0.011446473303050956;0.2853143868688846;-0.10372395064167203;-0.1616630661255169;0.056179315767636955
 ;EMGZ;8.37873577576793e-08;0.009327411597129947;6.829021644333801e-05;-0.00628660634664736;0.006273262278933573
 ;EMGMF;1.5145211181355178e-07;0.009327804120017876;4.756626942238352e-05;-0.006246281549950252;0.006297810737636105
 ;EDA;1.1745676979018471;0.199213296329553;1.112382056002003;1.0174405867770469;1.2794576828353559
ID331_N;ECG;-0.012779528821604585;0.5636534555211952;-0.06403189261697088;-0.11596735756085208;0.05543951803395949
 ;EMGZ;-3.063770326371203e-07;0.00893046245914214;5.0719434947916944e-05;-0.005999748353913271;0.0059784536882754105
 ;EMGMF;-4.622708187257368e-08;0.008979184150970513;3.138881943607003e-05;-0.006055387834208817;0.006072081332812316
 ;EDA;0.4565195177280245;0.12248750998821076;0.4489700858776492;0.3780536465583917;0.4633721627758196
ID331_F;ECG;-0.011202955718939304;0.326962890090248;-0.08549643670998339;-0.14028593425447494;0.06511037845323592
 ;EMGZ;-8.518417306784694e-08;0.009507228775813207;7.740052862271335e-05;-0.006440791740587721;0.006418249533921409
 ;EMGMF;2.3243976870758603e-07;0.009430794132003031;3.4450072208952465e-05;-0.006346289667129609;0.006357722258589552
 ;EDA;0.3942142566065998;0.12719239337537377;0.2972967322600002;0.2840042515653866;0.5046002070887671
ID331_H;ECG;-0.010791276334239347;0.3267910637165092;-0.06640896081850774;-0.13040683090147648;0.05877726883948782
 ;EMGZ;3.838616340630912e-07;0.0091091288502701;7.730792653279058e-05;-0.006124272902426911;0.006111345347756121
 ;EMGMF;3.415431999831193e-08;0.009137032160626897;2.1813879252464323e-05;-0.006173730479553713;0.00617030148008306
 ;EDA;0.6931653452747465;0.08677539708472858;0.6713855893752771;0.6550218103641811;0.6912398238023093
ID334_F;ECG;-0.004388875389581716;0.44676235996898167;-0.0512149840374303;-0.13158824591087812;0.03001284193545572
 ;EMGZ;-4.245946616553531e-08;0.009415155395494318;7.951659250961382e-05;-0.00635904165350451;0.006353033404712062
 ;EMGMF;5.245355670183701e-08;0.009519466972752485;1.984735304922953e-05;-0.006424819596810556;0.006448757761845768
 ;EDA;0.8819265441186455;0.08508757610978489;0.8718438346331907;0.7946356810590623;0.9404081615383135
ID334_N;ECG;0.005650798067962811;0.42650425655211965;-0.0631077534791312;-0.18047335083464858;0.0549566540598317
 ;EMGZ;2.732662551510714e-07;0.010255102144021325;6.733037480937591e-05;-0.0070708615095975815;0.006998541450086326
 ;EMGMF;2.597959266017251e-07;0.010153700477256973;3.9124973951468927e-05;-0.006954526352432798;0.006938848066473655
 ;EDA;0.8649093776796021;0.12674667027012432;0.9212819498765099;0.7371975189692858;0.9766144760013213
ID334_H;ECG;-0.009505545170773809;0.36073180017564854;-0.06514211074223647;-0.13172493240039138;0.011498486240318503
 ;EMGZ;1.8598694931591523e-08;0.009633728898969454;8.856604925826846e-05;-0.006533540220742029;0.006522376133096288
 ;EMGMF;-3.342522419414263e-07;0.009551004792343373;2.9995905790936614e-05;-0.006454473498742194;0.00645723456846253
 ;EDA;0.5693985195128287;0.24539078053517413;0.5963335503544736;0.327280848859267;0.816896771915018
ID336_H;ECG;-0.010271297817978545;0.25984430245446094;-0.06375027313500126;-0.11463143869457601;0.04941317534929524
 ;EMGZ;-2.3838397495507688e-07;0.009136568360499444;0.00011004678739035724;-0.006149015970092451;0.006127846134830349
 ;EMGMF;2.582602059243597e-07;0.009180658543008471;1.7943507565681624e-05;-0.00618878961736549;0.006207312094718009
 ;EDA;1.147943601746301;0.20671064807920628;1.1663335490740576;0.9484494477585251;1.24472371064465
ID336_F;ECG;-0.009391533012006603;0.4369336844344953;-0.03493916616576001;-0.09021156917571324;0.0665479573330895
 ;EMGZ;-3.815941371418907e-07;0.00935337792580092;8.049146425429747e-05;-0.00630156289751986;0.006295330138520122
 ;EMGMF;8.227918423092418e-08;0.009233922766586519;3.181786764219199e-05;-0.00622176111388043;0.006241844116582047
 ;EDA;0.6968176991617523;0.3605976995678013;0.4088668826259272;0.3430100996818542;1.035769048331818
ID336_N;ECG;-0.02545811904086114;0.32147207350834733;-0.08713902365806629;-0.1711709231333931;0.062173972780250705
 ;EMGZ;3.325027096968873e-08;0.009504132633034394;9.208528557435225e-05;-0.00640899633951644;0.006381873636314921
 ;EMGMF;5.4589907755363e-08;0.009459943773420871;4.739290553032985e-05;-0.006378330585588912;0.006383535817735684
 ;EDA;0.8734504782866082;0.2125500090129481;0.88018213973978;0.7076825748296423;1.0049076717413437
ID337_N;ECG;0.0012737142457501457;0.4162216726040209;-0.06669988282535325;-0.12285710631611886;0.018015008898427012
 ;EMGZ;-8.821163287221709e-08;0.009103755916882105;7.125627402983399e-05;-0.006125927314350945;0.006106298528580134
 ;EMGMF;9.252823439956199e-08;0.009184598887129357;4.607521011476014e-05;-0.0062061392644716775;0.00620712114726644
 ;EDA;1.1493013051542693;0.18952748662516655;1.2079241035398485;0.9283615965004111;1.2711406626502288
ID337_H;ECG;-0.009709604523675173;0.3618056865898457;-0.07041340924354599;-0.12021361074881823;-6.70570876710207e-05
 ;EMGZ;4.3521123221093303e-07;0.009405857695545423;7.019674045720032e-05;-0.006311055000085384;0.006312432255796609
 ;EMGMF;4.974079121626899e-07;0.009825703278451163;4.592851787151367e-05;-0.006368179132150973;0.006404058264526719
 ;EDA;0.3627106534847048;0.05065414505941129;0.38762013538314577;0.3153046235449188;0.39977218318135266
ID337_F;ECG;-0.010246125190175894;0.33568805851722544;-0.06912127084588454;-0.12055837938438592;0.0008628231146084971
 ;EMGZ;-7.97370611111328e-08;0.009757481714205186;5.6067822662770835e-05;-0.006609364496368021;0.006580945447279848
 ;EMGMF;1.0843417545788721e-07;0.009759525332306035;1.5987895147254794e-05;-0.006585517825268349;0.006590986976238521
 ;EDA;1.1425213284624776;0.09664169427511822;1.141244215992184;1.088162369386681;1.1892241638081513
ID338_H;ECG;-0.010799381314873192;0.3508230962369884;-0.07208659335561013;-0.1584157286225737;0.03599535486185291
 ;EMGZ;-3.5757631423370203e-07;0.009244231859032627;7.359173450023583e-05;-0.006220074213877169;0.006209868386054515
 ;EMGMF;-4.293778091833566e-08;0.009263062273245214;2.4789837224589403e-05;-0.006239485018689689;0.0062580074291006356
 ;EDA;0.5473836620305241;0.06711513768376488;0.5437248019368834;0.48941472527302254;0.6124046821504981
ID338_N;ECG;-0.008878284007240023;0.431677574045153;-0.08737038511191544;-0.16631882236903286;0.07768155525454096
 ;EMGZ;4.580405698145739e-07;0.009493996113092127;5.743135575704767e-05;-0.0064304638827905125;0.006370138550581467
 ;EMGMF;-1.9511358699999293e-07;0.009436658028751918;4.619897171867622e-05;-0.006365988294435055;0.006373865444723146
 ;EDA;0.6714683520820296;0.28292077837758683;0.8064766163468182;0.3807411910838867;0.9521631767859329
ID338_F;ECG;-0.013060065361019524;0.3780841769307141;-0.08789438234627382;-0.15782857462844724;0.05096163870225211
 ;EMGZ;2.7927725186593965e-07;0.009220736294300166;4.853750869464904e-05;-0.0062169257982594055;0.006204528509340729
 ;EMGMF;-4.0314647407289e-07;0.009227265521430012;1.887123544468941e-05;-0.006247173718889538;0.006246434429852639
 ;EDA;0.6227033219905366;0.13969193534912658;0.6057876401284115;0.49548379686533484;0.7174398091708354
ID339_F;ECG;-0.005986149628498444;0.2575546468059001;-0.04858189139875624;-0.1155662999730447;0.08476719975983356
 ;EMGZ;3.398906970912198e-07;0.009912635071431258;6.621942943548523e-05;-0.006747290211161505;0.006732509024811664
 ;EMGMF;3.9101789067912363e-07;0.010027540954437362;5.0330918656979495e-05;-0.006823653868109438;0.006858697442398528
 ;EDA;0.505533850883868;0.3985456297221455;0.6500611485998197;-0.0159075694289362;0.8337537697797828
ID339_N;ECG;-0.0009175783391657588;0.6415416935666629;-0.058104014704173666;-0.12814512206679468;0.0821785717305883
 ;EMGZ;-5.016799886972461e-07;0.01005379812538497;7.280444204681462e-05;-0.006841284582717483;0.006788639546497939
 ;EMGMF;6.754982644006936e-08;0.009981062143930469;5.9874917771187135e-05;-0.006736517006831202;0.006740259178350034
 ;EDA;0.659960407144221;0.24341500624929646;0.8502202396414453;0.40364544272012565;0.8906650086974991
ID339_H;ECG;-0.007380735927247787;0.4326917084154671;-0.052929884665027335;-0.12887924261730016;0.1000914954050023
 ;EMGZ;-1.3048227448105645e-08;0.010066607219887884;8.399437937041149e-05;-0.0068873338419351855;0.006838037223931001
 ;EMGMF;3.062071920778033e-07;0.010398371442498566;4.483257694244157e-05;-0.00700692692103881;0.0070025264119999535
 ;EDA;0.5332040646644605;0.160751017154705;0.5331605150300469;0.39327001483829904;0.6991608566968157
ID340_N;ECG;-0.009170320427827712;0.26110061612411445;-0.06931959192869268;-0.1770602591983888;0.15860899875179194
 ;EMGZ;9.361294452347531e-08;0.009710388159032706;9.824391745471965e-05;-0.006627630000698664;0.0065618808935973775
 ;EMGMF;-2.216549929126005e-07;0.00968287385947775;4.658045796369177e-05;-0.006538812438159149;0.006593037048132636
 ;EDA;0.9837100499263866;0.2936366978608343;1.180642668129089;0.6861721969305487;1.265748862523632
ID340_H;ECG;-0.008258986550419439;0.23260203541447874;-0.0646297957873758;-0.1412260601144301;0.10084192527415418
 ;EMGZ;1.1304491621330625e-10;0.009477331476777854;4.409494449789889e-05;-0.006396868087878617;0.006353420351858896
 ;EMGMF;3.054309724125627e-07;0.009393284294396637;2.6854439944313602e-05;-0.006356637785049905;0.006367520613819051
 ;EDA;0.3104631114040795;0.3269200779990271;-0.015940704923657213;-0.016062456847372536;0.6324899464543767
ID340_F;ECG;-0.005088802727193757;0.2409884253866212;-0.05944199344869126;-0.13162496976722635;0.12150834703235389
 ;EMGZ;-5.910851227782109e-07;0.010417629665820868;7.007148946080592e-05;-0.007158913891343434;0.007122516392332445
 ;EMGMF;-4.9210716612873414e-08;0.010349161967668039;3.835068136359129e-05;-0.007076116750326364;0.007058406996519251
 ;EDA;1.2604730624018214;0.08060033782729649;1.235494345712691;1.1995212827463915;1.2991769770763595
ID342_F;ECG;-0.005655822984652587;0.4387596065451039;-0.03417655332702431;-0.09095714893325649;0.06583862505420256
 ;EMGZ;1.5087702638147206e-07;0.010056783106915886;7.5837782554351e-05;-0.006850168420246747;0.006822079740991659
 ;EMGMF;1.7041217870250783e-07;0.009975987971514694;3.6100390204810476e-05;-0.006776753151209591;0.006797268418329252
 ;EDA;0.4808149838168019;0.11111861578064103;0.45682915216239445;0.3959823197770404;0.5262542672047444
ID342_H;ECG;-0.007851826268949876;0.2874808543268734;-0.05316358743217696;-0.11423114498633938;0.035511634564865294
 ;EMGZ;-2.258058334845295e-08;0.009985307157455311;7.919492554358133e-05;-0.006793205143094765;0.0067851067065382124
 ;EMGMF;-3.682367069271173e-07;0.0100340158226496;4.234274773848637e-05;-0.006830365028415152;0.006835508948531101
 ;EDA;0.6416963437017974;0.23498454837141391;0.5979748935852727;0.4468498498382156;0.7655999548878065
ID342_N;ECG;-0.011360248767095779;0.29612747264518413;-0.04905284360492301;-0.14093426906068884;0.09228606079710253
 ;EMGZ;7.91075479031015e-09;0.009981734566945606;7.777477604405092e-05;-0.006800071281474201;0.006777839343590395
 ;EMGMF;-2.1360592010520609e-07;0.010013824103757021;2.134827586309975e-05;-0.006791398960924273;0.006821105361554177
 ;EDA;0.5189466798785338;0.06780107789006186;0.5183475327144521;0.4706897457303491;0.5560622128756455
ID343_F;ECG;0.00648160034168359;0.45120959513804326;-0.062387399914151126;-0.15248664083092656;0.1165094449351383
 ;EMGZ;-1.1757888236743003e-07;0.009828162017028609;5.161759681945134e-05;-0.006641639568590046;0.006654722285843367
 ;EMGMF;-5.32881194244636e-08;0.009705727015254982;3.398487891095544e-05;-0.006572008733218906;0.006575576297747902
 ;EDA;1.5386341801968553;0.2618793816170415;1.521008889316822;1.3941021346768125;1.607702116471806
ID343_N;ECG;-0.012587863496037011;0.4272330346224905;-0.04640697722492422;-0.10534494446226401;0.0493698222698831
 ;EMGZ;-2.3880627585815104e-07;0.010029649142554713;9.326641731917585e-05;-0.0068339016856187925;0.006808759928815792
 ;EMGMF;7.437484875197596e-09;0.009871963586936087;3.932336766457572e-05;-0.006694573223122483;0.006700360183451265
 ;EDA;0.7229973651757922;0.15153980548184717;0.7075301485960748;0.6016964657224779;0.8319515534598964
ID343_H;ECG;-0.02348712710631944;0.4420801234584694;-0.07727288903309085;-0.18798328533686026;0.08869375380879185
 ;EMGZ;-3.843033704458961e-07;0.009948141838374504;9.641697538597402e-05;-0.006765280029103806;0.006748889402832337
 ;EMGMF;-1.434183301976463e-07;0.009887728902271442;4.907055624713501e-05;-0.0067266331325923885;0.006703446370072454
 ;EDA;1.9435998797142047;0.2941951882975595;1.936974563656677;1.656054450160009;2.1938603234061897
ID344_H;ECG;-0.00120183116940871;0.4467962322361922;-0.04635783152048552;-0.15080414019975363;0.12156886737434906
 ;EMGZ;-1.8480381685280395e-08;0.009509085157922353;8.651557770673543e-05;-0.006411578404041019;0.006383791079764011
 ;EMGMF;2.815959121272559e-10;0.00955630214064442;3.7411021656271175e-06;-0.006476904847337788;0.006475355482806887
 ;EDA;1.2929140828893402;0.26879798176283787;1.1040474571441083;1.0347645620338821;1.5134808781024904
ID344_N;ECG;-0.012349082680302033;0.3733817499418586;-0.083157443521303;-0.16208666832099144;0.04677088498357786
 ;EMGZ;-2.603653265716463e-07;0.009855804600241281;7.906571099921026e-05;-0.00671516878947336;0.006661266795063644
 ;EMGMF;-2.1202716895047682e-08;0.009902129485067631;3.909894567360817e-05;-0.006732362465834158;0.006749668104678709
 ;EDA;0.6211877366228413;0.41634708509988505;0.8630002509346516;-0.014894967385967847;0.922648881170095
ID344_F;ECG;0.0021495591358688753;0.4385357310843755;-0.06569140602445728;-0.1369109549410421;0.056975626949555006
 ;EMGZ;-6.077529153640892e-07;0.010366396711387199;5.929629537364278e-05;-0.007122696321177372;0.00706220170399735
 ;EMGMF;-2.964629638419416e-07;0.010279694540355582;3.208482310869046e-05;-0.007011973668629018;0.0070288656632667215
 ;EDA;0.77550646532158;0.15974282636601236;0.758941213642328;0.6286789084360263;0.8970213311311002
ID345_H;ECG;-0.009457418077322064;0.4294077035529364;-0.07705935359520308;-0.1545986675392219;0.051392847373327916
 ;EMGZ;1.2098203126573922e-09;0.009114391919848691;6.726236675634973e-05;-0.006134488061003906;0.0061268277650606915
 ;EMGMF;-2.4373216948230443e-07;0.009134206511216929;5.095206846919488e-05;-0.006174790535217046;0.006201278757572571
 ;EDA;0.5609551065344281;0.11701523262998144;0.492829510128164;0.4654004355186337;0.6793324085632657
ID345_N;ECG;-0.011289598127126215;0.41896711520645263;-0.08531951432128529;-0.15716256400196704;0.043692981325834164
 ;EMGZ;2.7836137890518306e-07;0.009709248658748762;4.9698489761964746e-05;-0.006591425389530401;0.006583216080185991
 ;EMGMF;2.4076046775311345e-07;0.009736959366427187;5.530356106499615e-05;-0.006570633339377919;0.006586087242847798
 ;EDA;0.3036073397937556;0.0840006396974518;0.295817100062188;0.22953961773188858;0.406930814284141
ID345_F;ECG;-0.011755981713212255;0.5535289351859822;-0.10178783752360276;-0.17739228852710148;0.05775130798667739
 ;EMGZ;-1.5429624019671138e-07;0.009866192306785542;7.17993076302417e-05;-0.006733766479651326;0.00666910432925563
 ;EMGMF;6.717592101359879e-08;0.009953451020002767;4.369406169822047e-05;-0.006790656999501512;0.0067676911430017556
 ;EDA;0.35885134506098176;0.19880364974917789;0.4665607294512751;0.3917668494404735;0.4868565863616343
ID346_N;ECG;-0.0117885884905778;0.3745416673079309;-0.08188859215668808;-0.17344037739609086;0.06716258808988912
 ;EMGZ;-2.472063897275604e-07;0.010132036335093757;5.329924881456881e-05;-0.00690377950700667;0.006880178707001723
 ;EMGMF;1.7884484399507268e-07;0.010078523353323264;3.200712814136982e-05;-0.0068266850403931375;0.00683536585646461
 ;EDA;1.2007200661275519;0.13977294791984096;1.1440583974128664;1.0805967313623075;1.333692193411075
ID346_H;ECG;-0.011072151334603545;0.3224187429605174;-0.07944823987349374;-0.1590145524436137;0.05427617192578491
 ;EMGZ;-7.66210034898164e-09;0.01017111319735121;3.330569875850805e-05;-0.006941306134532761;0.006909095524018471
 ;EMGMF;4.813757552908536e-07;0.0100669396126262;2.196669833627623e-05;-0.00687377067064775;0.006877239155992305
 ;EDA;1.3205061618438056;0.09709743378872245;1.313884795020721;1.2648289884647221;1.3733956748489273
ID346_F;ECG;-0.0027432709194717313;0.38137786200404367;-0.10517303207514977;-0.17424287882944603;0.0668233172195859
 ;EMGZ;7.585370783460131e-07;0.010385947774428157;7.704013661037363e-05;-0.00714722188112461;0.007126547918997864
 ;EMGMF;9.489909171791393e-08;0.010401454841820567;8.101579223239409e-06;-0.0071420496785226505;0.007121328432036357
 ;EDA;1.1234111571240053;0.23481725145626378;1.181052924056572;0.8976504964890044;1.249917790907743
ID347_N;ECG;-0.0007536201779155681;0.3653871979700781;-0.032858191041593564;-0.1004373201962252;0.0861470110071993
 ;EMGZ;-3.739818065434413e-07;0.00999775084799109;7.893305157848757e-05;-0.006821553862324196;0.006770659295375065
 ;EMGMF;-1.5089645710136755e-07;0.00995974631264492;4.94595582403524e-05;-0.006781719853495373;0.006779318132195098
 ;EDA;0.7316923942597834;0.19377069186953244;0.8465423892000015;0.5347952567703366;0.9070076522304646
ID347_H;ECG;-0.005395869437799618;0.3225598257268839;-0.05111618722863173;-0.11561946413666915;0.059601222876187895
 ;EMGZ;4.7627108987455824e-08;0.009661351837961043;9.100677301122559e-05;-0.0065402920143100484;0.006539233528474018
 ;EMGMF;-1.399825702785705e-07;0.009829258482585078;3.7839446404890065e-05;-0.0066832792091701485;0.006662519486816472
 ;EDA;1.1337195080461555;0.1069643753490703;1.1055936437188785;1.0587288803677568;1.182715157230262
ID347_F;ECG;-0.048749600048583974;0.3030030105003023;-0.09178963157625589;-0.15392084791820992;-0.005961642459295265
 ;EMGZ;-2.4345116083166655e-07;0.009665908110949223;0.0001107839777999334;-0.006578975009082336;0.006560996879284783
 ;EMGMF;2.583848711203413e-07;0.009753230196584906;2.443608716529112e-05;-0.006578390025352878;0.006624014821956311
 ;EDA;1.317343776497961;0.22252852388704647;1.2515663087650357;1.1183608834208103;1.5086367947119859
ID348_H;ECG;-0.008670573658590535;0.37012050682200787;-0.12005301172405791;-0.17678453856929122;0.030883976807875354
 ;EMGZ;4.92408263591626e-07;0.00974166674103848;6.67603227443731e-05;-0.006610761924027667;0.006603196752013178
 ;EMGMF;2.6561796137929635e-08;0.009688475802304003;2.6260644510406588e-05;-0.00656418900832058;0.006573544205724576
 ;EDA;0.5125732138085946;0.11917718728353689;0.5602975053439936;0.40896777390381406;0.6114098793307651
ID348_F;ECG;-0.01377599366179611;0.3550769486648768;-0.12526087022126955;-0.1848754301813598;0.04793519471958605
 ;EMGZ;1.381804547961107e-07;0.010590177958469919;6.319576149655922e-05;-0.007317954212118378;0.007276779246434385
 ;EMGMF;-2.2210633257415443e-07;0.010564790149627409;4.049862889664738e-05;-0.007266872426689332;0.007291722108498304
 ;EDA;0.7504917909163941;0.2521172424481228;0.6329235511761601;0.5209405909200119;0.9609249363244483
ID348_N;ECG;-0.010509879448066846;0.3798149473287127;-0.10059529307002757;-0.16433877115094964;0.0215362315846861
 ;EMGZ;-8.845810321531519e-08;0.010298391731627944;5.158431153260822e-05;-0.007047889822218354;0.007046338456846687
 ;EMGMF;-2.9355913928468442e-09;0.01036585652936583;4.641639702032078e-05;-0.007088620362581236;0.007102498101150978
 ;EDA;0.7038834772050984;0.1798673047525056;0.6488624736816588;0.5524726216518505;0.8165127334843039
nome;type;mean;standard deviation;meadian;percentile 25;percentile 75
ID1_F;ECG;-0.009019463294671308;0.36302867688665946;-0.05243050141358612;-0.10722310834264955;-0.003199421296692412
 ;EMGZ;-9.891473414356611e-08;0.04326232303001275;-9.806253002034933e-05;-0.010016267015775964;0.009707770837982303
 ;EMGMF;-1.5895366851278458e-07;0.018619851287278704;0.0005396425895609024;-0.010116147444746145;0.010694984075588946
 ;EDA;1.837710104751521;0.23675391790546246;1.7844708700638612;1.6207862412555416;2.0097460468169777
ID1_N;ECG;-0.011427514406028641;0.42535199229053977;-0.05942339862945217;-0.12507623154731343;-0.004252897038394078
 ;EMGZ;-2.6512230791758427e-07;0.032763296672527614;0.00016722597727366261;-0.02771139334504621;0.027741289375737676
 ;EMGMF;1.4348471401315435e-07;0.03523072676642636;4.339222312515958e-05;-0.030112874360174055;0.030163621073171398
 ;EDA;1.6757900974349547;0.07726367468262123;1.6803393091523267;1.6063356962436601;1.736552149064932
ID1_H;ECG;-0.0006302959227185438;0.3235883237602372;-0.044752258992280025;-0.10016963762072637;0.006598122138663831
 ;EMGZ;-6.544767157045455e-07;0.058274341659669576;2.1611306470523594e-05;-0.014681452695547713;0.014584597959197674
 ;EMGMF;9.068609287211075e-07;0.013661038045739305;-0.00028719438432694934;-0.006493715074316796;0.0062433280097044545
 ;EDA;1.434529647593713;0.0638017941946376;1.446600246452372;1.388834950160845;1.4673125952216788
ID2_H;ECG;-0.009218209758937756;0.3462828133657035;-0.10161796652085206;-0.16846739173319697;0.07667175920178197
 ;EMGZ;6.026819832320938e-07;0.050410684638828744;4.833208534465658e-05;-0.02819403113155674;0.02810608215661747
 ;EMGMF;-8.74330387116368e-10;0.002365828619017946;-3.0505215969426052e-05;-0.0013106092383076379;0.0012341896383600342
 ;EDA;0.8038370489403297;0.0781426934396776;0.7746903783542138;0.7368763271950733;0.8618583964068642
ID2_N;ECG;-0.011665344247244422;0.39206678100700565;-0.08271788820124004;-0.17378886085672154;0.09979308990146957
 ;EMGZ;-4.487965615126127e-08;0.0346588542509867;0.00017491215012595002;-0.009462544304675361;0.009629344332774237
 ;EMGMF;2.768433435903924e-07;0.012989057285265391;-0.000532136803062901;-0.006065237892610638;0.0052528963208887565
 ;EDA;0.8875577707597706;0.08530569269585528;0.9067556273078964;0.7916245225689734;0.946411522863571
ID2_F;ECG;-0.013495366086390737;0.3998672060951732;-0.08335768449957122;-0.1809387672777577;0.10979837559886509
 ;EMGZ;2.145724333782802e-07;0.047406444066637674;0.00045314164041984867;-0.00886547417453731;0.00928431008711303
 ;EMGMF;1.1673144293448632e-07;0.0422395855497385;0.000305244770346698;-0.02826351236424331;0.02760180803274062
 ;EDA;0.5366135071740021;0.1167156608868819;0.4654630767774638;0.4236912100109312;0.6397838961507221
ID4_F;ECG;-0.009492329463184906;0.3512196759389692;-0.05056449737557643;-0.1314310969917022;0.020876486680813995
 ;EMGZ;-2.534077108867318e-06;0.0649117604916397;0.000337367503846657;-0.03841575565603135;0.03850004361118896
 ;EMGMF;-6.069221420425269e-07;0.033976547987780915;-4.717346310241825e-06;-0.02104051017634295;0.020685468034723598
 ;EDA;0.5958488847835276;0.13065676175001356;0.6492443687959886;0.4658234650974363;0.6849238357569152
ID4_H;ECG;-0.0065107126504925904;0.8166535454173655;-0.05951601945888166;-0.12149243709069205;0.03533444899363264
 ;EMGZ;1.137582409066428e-06;0.09850442186586103;0.00025413921301326026;-0.07465300532413438;0.07488798212992712
 ;EMGMF;-7.69644243292165e-08;0.06402029030451785;-6.387150703416992e-05;-0.039341572506524536;0.03907741394273337
 ;EDA;0.46201529406316355;0.21171363205422863;0.6201420108221458;0.25032196845926874;0.6798315105366775
ID4_N;ECG;-0.008320730341518019;0.5569630713492841;-0.05950699273435643;-0.12206690393855552;0.02595623861982986
 ;EMGZ;2.4067202684428855e-07;0.05214919876857756;0.0001031131027748218;-0.04147987837052877;0.04151131879329568
 ;EMGMF;1.046536348562497e-06;0.018063704873787;-0.0001564458458420788;-0.0066950285367946795;0.005970504429602254
 ;EDA;0.3810952974935029;0.1496742023424702;0.5171110519185855;0.23173680771025212;0.5278741080668411
ID7_N;ECG;-0.010670473890192166;0.2443735129742063;-0.07196850316929612;-0.13229757290808072;0.054787956657572134
 ;EMGZ;3.714263542218547e-07;0.01649471542213634;8.754000925721966e-05;-0.015336561361561949;0.015294738684167433
 ;EMGMF;-1.923543884526151e-08;0.009763303476466175;8.455794087490541e-05;-0.005557165534704954;0.0055266885232402455
 ;EDA;0.7488976929587788;0.12036439295047095;0.7466571299856106;0.6494857157994819;0.8244073293828303
ID7_F;ECG;-0.006077234608994732;0.24371201701237843;-0.05344204305086258;-0.11337974862680719;0.053399309286826596
 ;EMGZ;-2.8262525489382666e-08;0.03864644278866217;-0.00024084565774556022;-0.021244528969786864;0.020750798447050297
 ;EMGMF;4.3934536541730036e-07;0.052219897669729495;8.244211244956036e-05;-0.03641069379730927;0.03649219420021494
 ;EDA;0.3652979722290483;0.04453146168936525;0.36701206901736594;0.33025246053637414;0.3892346355743163
ID7_H;ECG;-0.010993847095953259;0.20356518740162036;-0.04921893461795423;-0.09408625825463843;0.024095167531668432
 ;EMGZ;2.128807975104167e-07;0.03869836692826042;-4.6610872760751245e-05;-0.006097819870164906;0.005605033761165093
 ;EMGMF;7.722231982513738e-07;0.03213667699403884;0.00012442083965834446;-0.009065300218158727;0.009008978924640497
 ;EDA;0.4875861562905879;0.14343019595065545;0.43457274169803206;0.3919872930760838;0.612864543703558
ID8_H;ECG;-0.010270473001895814;0.24665204143791714;-0.05394448166138363;-0.10125605999360458;0.024375423042305458
 ;EMGZ;4.778369723666675e-07;0.026437890761808157;0.000109777894971878;-0.019059943381232052;0.01915831467172968
 ;EMGMF;-5.904255318072487e-08;0.011487938031041527;0.00030779925210582904;-0.006744080949095685;0.007031572033495664
 ;EDA;0.9288596331105274;0.26068148697852583;0.7599599335921419;0.6642035825655008;1.1558197088794484
ID8_N;ECG;-0.009114886204785606;0.1836286374068171;-0.045181082686994514;-0.07965033532252712;0.027421607284038182
 ;EMGZ;1.220218837876406e-07;0.030565329640068074;0.0001590774836846584;-0.01487474795874194;0.014835717987487765
 ;EMGMF;8.42370972213498e-07;0.009539078082106836;2.4030516720805004e-05;-0.005886266998371273;0.005856783148878027
 ;EDA;0.17051631924833185;0.041833428598429485;0.19166565585209544;0.1289145715847625;0.21094048817437355
ID8_F;ECG;-0.008326231242486748;0.16883468805054894;-0.0399855355736112;-0.07939786001095128;0.04025554985315162
 ;EMGZ;1.2365821850455928e-06;0.01947324163496288;0.00014453810671669239;-0.012748595256490147;0.01269281529836894
 ;EMGMF;-2.8349874718843205e-08;0.008843058834661962;0.00013237604950912577;-0.005747189403476056;0.005775216257164505
 ;EDA;0.5060173154549635;0.37357912088562306;0.15827987329155824;0.14026328998723012;0.8589404518065231
ID10_N;ECG;-0.0073166064622677395;0.4163360331406578;-0.04446872973276751;-0.10266045177927496;0.035557533807237834
 ;EMGZ;-3.5465023960351265e-07;0.08006775638720763;-6.300003324472719e-05;-0.011010593490233126;0.010670938739076142
 ;EMGMF;1.8660160558921568e-06;0.04968979101208835;-3.1837508947564486e-06;-0.03444933566958353;0.03453010275863435
 ;EDA;1.0903665250117358;0.18584251918729325;1.179046606808578;0.9002833929515383;1.2535255220361867
ID10_H;ECG;-0.00713430437866682;0.2402323691933596;-0.05273288082407619;-0.1013874393579951;0.0363228472439673
 ;EMGZ;1.6542239423388015e-07;0.05334433992862554;-0.00018918741685248445;-0.012159608898045756;0.011619909485506083
 ;EMGMF;1.7554173439801886e-07;0.026306203679160103;-0.0003157317666474533;-0.010305035610985051;0.009797236206380427
 ;EDA;1.0583760421458575;0.27612635454931367;1.068544656975976;0.8762224889388393;1.3130286347420712
ID10_F;ECG;-0.00881252560173002;0.22474758790593719;-0.05096083616501405;-0.09633786468536135;0.02637121586592593
 ;EMGZ;8.74928201849023e-07;0.030588019811410544;1.8667200226655124e-07;-0.006948853693640364;0.006711863989444084
 ;EMGMF;2.3623623442865068e-07;0.025072766334165653;-0.00026952859672308956;-0.011767037702834519;0.01136978329434257
 ;EDA;0.7725861736884596;0.19608932391603165;0.8245950032082954;0.6864485685221772;0.8784852345341314
ID11_H;ECG;-0.010470459997752136;0.3299817604395998;-0.052837147287435327;-0.1400035875330776;0.15256481175534164
 ;EMGZ;3.0380087667734065e-07;0.018328425122502448;0.0001058962303204711;-0.007011188262709677;0.007046450524666428
 ;EMGMF;-2.887705781033005e-07;0.01653110952359281;8.360500723419897e-05;-0.012498731606347397;0.012518932674169987
 ;EDA;0.5028897535594993;0.06700993359911468;0.5000753474991027;0.460247446404317;0.5395218565570666
ID11_F;ECG;-0.011718041535480075;0.32838449196000996;-0.039342260991099935;-0.13869448824536101;0.1587507111642131
 ;EMGZ;-5.933421654319124e-06;0.15295638221521826;0.00019818895119472907;-0.10852356469028379;0.10846990952654753
 ;EMGMF;1.308865033032912e-06;0.027661933494071388;5.971433104877107e-05;-0.01626059926882783;0.0161447294689223
 ;EDA;0.9858770177637401;0.2985118395456414;0.8557401451711071;0.6859613255933912;1.2619416481022268
ID11_N;ECG;-0.01849191865212851;0.34305729123782686;-0.0503379308575976;-0.17811482596660844;0.1767449114332552
 ;EMGZ;1.952910751810047e-06;0.06445547835849244;0.00029642537842964993;-0.03511297690681051;0.03507202609243749
 ;EMGMF;-2.5746956337221344e-08;0.00948581500840541;5.263355221808111e-05;-0.004935738646546768;0.004970445847279683
 ;EDA;1.0405493382613145;0.1471726479543599;1.0246083323565216;0.9645115435565575;1.0792487253870497
ID12_F;ECG;-0.006091692956779065;0.26138364313984813;-0.08992332377216233;-0.16950298163156116;0.1080709314190534
 ;EMGZ;-7.975142057212455e-07;0.03157642171748503;0.00013227215280204544;-0.022584346690769128;0.02235768087896576
 ;EMGMF;-1.2998800880880832e-06;0.03507006097579651;-0.000995691629446306;-0.016210608810734106;0.014804145957916643
 ;EDA;0.9120507992090577;0.17245755113088754;0.946179196497601;0.7581116861409077;1.0265916095531176
ID12_N;ECG;-0.008270210771659195;0.27771157451685774;-0.09262134761318366;-0.17797497336297383;0.10514730324014086
 ;EMGZ;-1.4051032484707773e-06;0.03139560754491039;5.40426546409541e-05;-0.02070356171970473;0.020670938244325122
 ;EMGMF;1.589733865971201e-06;0.027234370681060178;-4.063391629479003e-05;-0.01938987206114645;0.019315381889129284
 ;EDA;0.14615049256018864;0.049576947969068995;0.12142186309081289;0.09599619583948715;0.1921890033492893
ID12_H;ECG;-0.009048144351950418;0.31799497484413125;-0.08528234585832159;-0.1585516571614361;0.08733300302285239
 ;EMGZ;-1.9344672514539167e-06;0.09594991469601838;-2.362544309294015e-05;-0.04491438379248791;0.04463579145761984
 ;EMGMF;7.448893098549845e-07;0.026128745886380443;-0.00023667858080013838;-0.012656247659712997;0.012447022908161002
 ;EDA;0.3691070614201411;0.11339670661866365;0.39926634582541776;0.2626686662944625;0.45975375729103185
ID16_F;ECG;-0.007624538146635629;0.2861709315531046;-0.06560081699980558;-0.13304415430801775;0.014477572174785356
 ;EMGZ;8.246317464632671e-07;0.03340245984283068;0.00010873681141238076;-0.011922250809198906;0.011914805854835434
 ;EMGMF;-2.781720688653573e-06;0.06041444703100793;7.57356300670857e-05;-0.024731420975967554;0.0248700091763487
 ;EDA;0.3766280884685739;0.26330699249066714;0.12100665021226197;0.11851071662861397;0.6286456789795621
ID16_H;ECG;-0.011934437070254812;0.41929905270680784;-0.05997329354662684;-0.14927655196574136;0.05901738947886545
 ;EMGZ;9.981204238642793e-07;0.07348634508270595;0.00016645156536288517;-0.02058445095572835;0.020411326547072034
 ;EMGMF;-1.3693370775143138e-06;0.029441472850061903;5.402906194369164e-05;-0.013384661477861985;0.0132449329611842
 ;EDA;0.4227454235851441;0.14301070847614844;0.3340209366510609;0.32421260937839963;0.5994423350691506
ID16_N;ECG;-0.005225698042648741;0.37971146802946765;-0.06425171527886053;-0.16968539722657414;0.05330702366346321
 ;EMGZ;5.136623149199726e-07;0.030384362781423837;7.610419262715773e-05;-0.00906596470873618;0.00903400176276127
 ;EMGMF;-2.1465334416086353e-07;0.015982922859578145;-0.0003279053496238894;-0.00703750430134905;0.006457008648956842
 ;EDA;0.14830919572032997;0.014029869602453197;0.1575812015406234;0.13399695708484036;0.16220400096833015
ID17_N;ECG;-0.004255693079860062;0.27289452275533044;-0.05595794494845787;-0.12982173748259054;0.10564296548559561
 ;EMGZ;2.4379656633600253e-06;0.06505656933206135;7.639874189878983e-05;-0.005007948007103927;0.005070108722548504
 ;EMGMF;7.435341430982445e-07;0.023746441551970518;-7.065026090476677e-06;-0.01581073790938131;0.01587362935199685
 ;EDA;1.2073370127085041;0.34163345470999074;1.3903599658146037;0.8611809115186553;1.5305407713355397
ID17_H;ECG;-0.00813293341604537;0.31832822122496296;-0.07481046616084105;-0.16883203438734873;0.11444613844766133
 ;EMGZ;-2.2063099220405866e-06;0.09203547282878524;0.0002582696242930823;-0.048647958292087144;0.0489677258071337
 ;EMGMF;1.2689765008170043e-07;0.011418834603081969;-7.10731557546215e-07;-0.00616445595932073;0.0061883464666342035
 ;EDA;0.7108278792703763;0.1396203325338486;0.6992278047398199;0.5845936354745045;0.8242390843627325
ID17_F;ECG;-0.00991235196689596;0.5929745464257417;-0.07888350975966055;-0.14515410589938213;0.09770316787806275
 ;EMGZ;-1.1838396522798276e-06;0.014959383961356135;7.212314921580925e-05;-0.005841559539648536;0.0058487831346436
 ;EMGMF;1.4026421347413124e-07;0.011083396096240716;-8.50475687518633e-06;-0.004132987748695629;0.004112089707697086
 ;EDA;0.8344081952726756;0.09703634972242496;0.8637568321127553;0.7371592833655103;0.9140135648245775
ID18_N;ECG;-0.014492428591467132;0.6089830509372389;-0.08285177648371139;-0.14407775799226222;0.021065635885056236
 ;EMGZ;2.0615345158504707e-06;0.04795550892031252;6.295336802393916e-05;-0.012183405253766785;0.012104859921154803
 ;EMGMF;6.447883849557987e-07;0.027995532772624645;3.050983448610648e-05;-0.010655081226818472;0.01060940325368441
 ;EDA;1.8160696396359328;0.08421512051057857;1.8394443848453252;1.729630881955222;1.8877570823063718
ID18_F;ECG;-0.006464856788285782;0.5522729166914766;-0.07436834220452182;-0.14813245341137105;0.05210514873616859
 ;EMGZ;1.7375086104526948e-06;0.04712449327306383;0.00020257711558053452;-0.02523277637323279;0.02536472358847603
 ;EMGMF;4.198915192966717e-07;0.012618750060334336;0.00030760519323330237;-0.006413586300736319;0.006620538058038325
 ;EDA;1.7861825071704154;0.29427302689486584;1.6007749762304169;1.4981499911255114;2.0510226264903717
ID18_H;ECG;-0.006904248349128101;0.3725441860198546;-0.08652151255428975;-0.14683364010963998;0.0017785708371649924
 ;EMGZ;1.911719034462663e-06;0.040306534803761083;0.00015243629534182623;-0.023025819078799095;0.02316358947623721
 ;EMGMF;-1.687353247953403e-07;0.026174707016248192;-0.00018784264324208093;-0.003983496689695521;0.003418945103667486
 ;EDA;0.9235881058099866;0.09197023309220122;0.896477448349982;0.847642259401511;0.9845153266619562
ID20_N;ECG;-0.007407006545746609;0.446711692738862;-0.05897908695895217;-0.15433416847550666;0.10171248398567961
 ;EMGZ;8.563455106290433e-07;0.05780736830237698;-7.324541791393381e-05;-0.013020206717299776;0.012933757232956426
 ;EMGMF;-2.2613775974626685e-06;0.035949711668042277;-3.9610437661004696e-06;-0.009539334690485943;0.00953408305129859
 ;EDA;1.0207314398273464;0.3535547685724128;0.7393901892935355;0.6892777974764237;1.3181531622262532
ID20_F;ECG;-0.00031250954767799994;0.5733710751766058;-0.025896624655559773;-0.17785269124076825;0.1633672617584162
 ;EMGZ;4.385866810454759e-07;0.03083832541900812;9.707697826636546e-05;-0.00737358357660716;0.0074117467104743455
 ;EMGMF;2.471751350715886e-07;0.016605649501469727;1.4397954353709318e-05;-0.004033461301905403;0.0040730988473275396
 ;EDA;0.9557179057145619;0.3641606112092718;0.7484033150788768;0.6330119706329671;1.3296933443183163
ID20_H;ECG;-0.010467821186178363;0.4443199079887179;-0.07672816705454236;-0.15113560506713752;0.07759274077881072
 ;EMGZ;8.808259518638467e-08;0.015928262716985008;4.496022851309864e-05;-0.005768641736491353;0.005734348710348794
 ;EMGMF;-1.7293052506677703e-07;0.020942554069387668;-0.0002369949023442035;-0.006129259922241361;0.005743940298911412
 ;EDA;0.5486301658991979;0.07344283819570312;0.5477749633905244;0.49556466552492257;0.6000039930270804
ID23_F;ECG;-0.0072698582132330195;0.37108501648857983;-0.06578848255769637;-0.15074768207152986;0.052740563602441816
 ;EMGZ;3.097088529205579e-07;0.05946102014048051;3.514711626145155e-05;-0.007957205716503848;0.007880368181889499
 ;EMGMF;-3.1298718306897236e-07;0.012456794758025072;-6.526584823018992e-05;-0.0063240402152358;0.006103767693480268
 ;EDA;0.8171348080836227;0.13706443310479055;0.7796126568299626;0.6800796490161952;0.9487478828150941
ID23_N;ECG;-0.012494178490434825;0.39643987874394965;-0.10133776294041534;-0.170310151950231;0.04521613599427746
 ;EMGZ;-3.91367586188013e-07;0.04857119408766464;0.00010098797577827689;-0.009928712207293109;0.009863075236911958
 ;EMGMF;8.114726171093717e-07;0.026376055844826708;6.183880664178878e-05;-0.01265717137466674;0.012694645410399172
 ;EDA;1.0806114428434266;0.05300481599435253;1.0914804508193443;1.0636145493855127;1.1101272612392328
ID23_H;ECG;-0.010776175464211049;0.4131802287987619;-0.12976551163831745;-0.1922427519803354;0.03470135737657746
 ;EMGZ;5.491447370508628e-07;0.06214210994766677;7.102458898386913e-05;-0.022095672267750503;0.022064585024428943
 ;EMGMF;2.763980585254458e-07;0.016324172913000985;2.256693510834426e-05;-0.006598994446612355;0.006610932717596888
 ;EDA;0.7095159246764975;0.11287236751872966;0.7176307425138058;0.6044593702473711;0.8094687289876976
ID25_F;ECG;-0.005251145310117337;0.3180788801334536;-0.0858323523503292;-0.15879776649964583;0.06726332242057806
 ;EMGZ;1.138315566718987e-07;0.04238311278350669;0.00010513670014396714;-0.009816058822442936;0.009902629845993889
 ;EMGMF;8.455338540047844e-07;0.0365616544015231;4.8478813392094366e-05;-0.02222602770373881;0.022192383242149616
 ;EDA;0.9627898713846272;0.09156659991299954;0.9437220696989643;0.8990680114117047;1.0042238608583038
ID25_N;ECG;-0.003949710846198785;0.3458630317704173;-0.09988072253439986;-0.17514586616556968;0.062011786532902666
 ;EMGZ;1.1286267392101796e-06;0.041904885726288615;3.05667092687068e-05;-0.005059234851843994;0.00502306157306653
 ;EMGMF;-1.4921314051009375e-06;0.03458288345544205;-2.4925817081441646e-05;-0.023694809844490725;0.02354056653573237
 ;EDA;1.1739523605171025;0.25444382836909696;1.312331853642517;0.9171437332533922;1.4111711716081998
ID25_H;ECG;-0.009506439888770701;0.34828624558994076;-0.10241536104246156;-0.1704069199953232;0.047863412737512066
 ;EMGZ;-1.267910114961458e-05;0.36952224866524985;5.297525019593973e-05;-0.04723160505718601;0.04746165887369372
 ;EMGMF;9.01510927046362e-07;0.03243026896890629;7.895764108863806e-06;-0.025616291654246195;0.02558660355893766
 ;EDA;1.0310694284248503;0.18580955659145587;0.9267864928163665;0.8856876860725895;1.1821260503909825
ID26_F;ECG;0.004383049556312736;0.31180904944099563;-0.008518810271039243;-0.08257827191169274;0.10841656086820682
 ;EMGZ;-8.476625763643534e-08;0.14075882602751114;3.803699740626801e-05;-0.004406192465449175;0.004386745779339245
 ;EMGMF;6.366826235765933e-07;0.029101431461724833;-0.0002517439831512761;-0.012466319769195185;0.011870304662037017
 ;EDA;0.7724741480925124;0.06991751572151385;0.7825668620126537;0.7207700240968836;0.7994528378974178
ID26_N;ECG;-0.008222279639296066;0.4365577068789525;0.006299986398207651;-0.06444214174565012;0.08457054969099131
 ;EMGZ;1.1605059085011453e-06;0.06745570803204115;1.318067628701576e-05;-0.02132487401351595;0.021218688391447162
 ;EMGMF;1.215063568831125e-06;0.03105632798546443;8.47783019114097e-05;-0.02185479737437751;0.022125439859605613
 ;EDA;1.1702407491532556;0.31927457896559575;1.373371581404582;0.8441930131289396;1.47380899859946
ID26_H;ECG;-0.008067079260744089;0.22349525948095758;-0.013824050932127524;-0.06561126095941815;0.06614606810409687
 ;EMGZ;-2.5185349649559295e-06;0.10434058976178348;4.418954709478227e-05;-0.02117023208032504;0.02116110215497992
 ;EMGMF;-1.8793694719059704e-07;0.039512166278310876;-0.0005018013430492236;-0.025631512300220257;0.02477578895887301
 ;EDA;0.758405246206645;0.16091590230112826;0.763738637860015;0.5979089150824248;0.9253523862153161
ID27_H;ECG;-0.00037286181373474847;0.3842709865436482;-0.08725184125713938;-0.1537807331500649;0.048766335652362686
 ;EMGZ;-7.010229118711624e-07;0.03727496203830574;0.000136061133988232;-0.005105930399607712;0.005230746197299071
 ;EMGMF;-9.241762564537296e-07;0.03630089157935319;-0.0010224639440028754;-0.019847219529345744;0.01827374197954134
 ;EDA;1.1825842334131116;0.20258444093474282;1.276043004021787;1.008612307373613;1.3546599660251524
ID27_N;ECG;0.003267748918383484;0.4103054658006985;-0.08272414046802395;-0.17734066233177787;0.07628424807999004
 ;EMGZ;-2.6492556295749834e-08;0.03985942458551076;-7.420909272675769e-05;-0.007207180441692808;0.006957542227657259
 ;EMGMF;2.3030799814852995e-07;0.021438853030993996;0.0001239811292438836;-0.01045253046385716;0.010280885550022247
 ;EDA;1.0744362467591821;0.0888608512055362;1.059025093215277;1.0135328531146677;1.1308098489136076
ID27_F;ECG;-0.0009791123875914035;0.3915976068159968;-0.08641615659803065;-0.15072912566179186;0.034853622376229555
 ;EMGZ;1.3666959934241608e-06;0.06564818232160871;-0.0001332843358826676;-0.006169605106279558;0.005591850091244249
 ;EMGMF;-1.113742871214236e-08;0.024072217209229446;1.8432131966919247e-05;-0.0099497555984455;0.009691380490771777
 ;EDA;0.6494332234633162;0.1433380027631136;0.6048108061520623;0.504008124027857;0.7777074231423975
ID31_N;ECG;-0.01516895305274122;0.39627057445887065;-0.08971586591069994;-0.15714886972636338;0.04166790276086585
 ;EMGZ;-1.1174131039257374e-06;0.05635868059529926;9.612218401194687e-05;-0.03579891920514377;0.035802289489469036
 ;EMGMF;-4.4913985665260005e-07;0.025176681813931782;-6.070564472727787e-05;-0.006455208305398351;0.0062559937317054936
 ;EDA;0.7154468942745432;0.3109483897437894;0.9041961411177393;0.4041509497234933;1.0263251174045118
ID31_F;ECG;0.012667482944800298;0.7757273837220411;-0.07298184549988325;-0.16282204586164892;0.06744969654033718
 ;EMGZ;5.4592642211521415e-08;0.010348977349746902;7.050005667832046e-05;-0.008175708418013312;0.008121627274363786
 ;EMGMF;-1.3897506258618454e-06;0.030922325133628407;0.0002021616365647078;-0.024152347001321847;0.02476042216661013
 ;EDA;1.4826445946801725;0.13233619052682286;1.478477709989379;1.360293652326907;1.5828513955984862
ID31_H;ECG;-0.006782413665587541;0.5827807790459387;-0.1132684092922336;-0.20136897436212156;0.07694066784900754
 ;EMGZ;8.173143535720025e-06;0.31228900130189857;6.61199479487333e-06;-0.02756073141853101;0.027622336985056013
 ;EMGMF;1.3849421887789482e-07;0.028836544948010637;-0.0005287358761087695;-0.010485808022816175;0.009304997702007024
 ;EDA;1.158821007102836;0.2136030597992732;1.3044493029440674;0.9457375600758333;1.3475417752516845
ID32_H;ECG;-0.002956315448334441;0.6370760906475572;-0.13150795858209793;-0.23155223880039272;0.011413518940388293
 ;EMGZ;-2.3975243769060692e-08;0.026931815969212278;0.0005016862195570445;-0.00845563074445565;0.009082775349254352
 ;EMGMF;-4.0889668462452433e-07;0.02951862640157035;-0.00012473756469276063;-0.011876533582405344;0.011450308130755552
 ;EDA;1.3430795594840788;0.2533969169873205;1.5087680347275882;1.0719236077632488;1.5932535291024255
ID32_F;ECG;-0.0011072348286143353;0.6361007780860531;-0.14037765945376662;-0.2513162162497943;0.016691362804912825
 ;EMGZ;4.1876510126552646e-07;0.024555394645693954;3.83069232607234e-05;-0.005966452002645617;0.005847990252921929
 ;EMGMF;5.872383871359068e-08;0.024043361645720216;5.691054444831442e-05;-0.008318840644688356;0.008253948339765366
 ;EDA;1.135648701985173;0.10888304123764933;1.154884389794531;1.0278244249201995;1.2324008251399952
ID32_N;ECG;-0.007136011051767758;0.6732208128472349;-0.14984383656964956;-0.2294448771286571;-0.0032244747041353865
 ;EMGZ;3.393043523206198e-07;0.028988297387679832;0.0001295655041008829;-0.009155268946940397;0.009281356790063488
 ;EMGMF;6.853503106474632e-07;0.019578776264124815;-0.0004134639793285089;-0.007632470274946739;0.0070083930533363595
 ;EDA;0.5181529088994224;0.2014677507080245;0.6709546402612843;0.3164430373504958;0.7226744483598802
ID34_F;ECG;-0.009386961686537893;0.33981138672522826;-0.0853997831204329;-0.16012876029034723;0.08326822433284624
 ;EMGZ;-6.709653454975693e-08;0.01736883368915168;4.09398820064229e-05;-0.005248845060418197;0.005255615745573332
 ;EMGMF;1.6181689695752905e-07;0.012779499416177344;2.6253497444147676e-05;-0.004525231792950973;0.004533615734095974
 ;EDA;1.3429772812068803;0.1488166930193167;1.2990527655134303;1.2523792619818572;1.38912158345688
ID34_H;ECG;-0.009506153034129692;0.5849546791017908;-0.08327491962590416;-0.15970006339527423;0.04272924280343021
 ;EMGZ;-2.2339651736466985e-08;0.013032924642857843;0.0001878809014645756;-0.005151383626044603;0.005327661119275422
 ;EMGMF;-8.706045860125069e-07;0.015247206092196491;3.4302910414050515e-05;-0.008263998177169897;0.008172938348266563
 ;EDA;0.6719421189577465;0.18692644020173624;0.6814431071147282;0.46998461684027415;0.8632993306188291
ID34_N;ECG;-0.010804951382982602;0.37833367599086537;-0.08521021505477679;-0.16038780791123025;0.04637886143800454
 ;EMGZ;-1.4475822815413092e-07;0.02743911609144152;7.880828487708219e-05;-0.004513978613309631;0.00459815019505872
 ;EMGMF;-1.0763121155108483e-06;0.01589827685371862;-4.750515883306214e-06;-0.003504386520063857;0.0033384442916966858
 ;EDA;0.6886225024764595;0.4254263366020606;0.6192021715487089;0.2764180931474055;1.1599549555605546
ID35_N;ECG;-0.010515221988322018;0.4916628749868508;-0.12679258347021138;-0.22486143671291536;0.0475065170526918
 ;EMGZ;-1.8983072275211499e-06;0.04238459471368551;-3.449778143574736e-06;-0.006426619354897111;0.0063002882608007744
 ;EMGMF;9.023039945585615e-06;1.2439157187088203;3.976212152018632e-05;-0.023009429616488025;0.016129033938712508
 ;EDA;0.7627752365555441;0.2422369247929698;0.8795296043467873;0.5274470859046768;0.9763597126489976
ID35_F;ECG;-0.00577091305951031;0.4798147832524636;-0.10658659262699624;-0.20149316886503735;0.03051467298869514
 ;EMGZ;-5.626400909677113e-06;0.07746781803690574;2.0629807855648895e-05;-0.005927592146325469;0.005723251515743324
 ;EMGMF;9.263775425571215e-08;0.014492349308518249;-2.175251148823175e-05;-0.004918770298569231;0.004519960819523616
 ;EDA;1.3648871346204432;0.1904692174185672;1.378329236214265;1.2059974570991185;1.50725727407475
ID35_H;ECG;-0.00674720676220778;0.4945758516750789;-0.11315912308936721;-0.20235887387433038;0.042398103476928975
 ;EMGZ;-2.0230695388762636e-06;0.06400398626988399;-0.00033319625897209053;-0.013270913582542463;0.01242763025011116
 ;EMGMF;4.932616961900791e-08;0.008709313045303781;-7.233920300068938e-05;-0.0027337229844660448;0.00260512754067831
 ;EDA;1.2662401445631715;0.19854500422661214;1.2560508677085767;1.1121241145593999;1.3960142525509587
ID302_N;ECG;0.008732723406965159;1.095487671235959;-0.07937315836620788;-0.15053275914910982;0.08725298126261699
 ;EMGZ;-8.309257727654054e-08;0.009609383246905405;6.740244134535093e-05;-0.006524344663418736;0.00650766928247784
 ;EMGMF;1.7657234810955486e-07;0.009713512158157685;4.1234781259148214e-05;-0.006587978184759755;0.006609704390961046
 ;EDA;0.9475578957172186;0.3314077459464792;0.9314128800170538;0.8369251613671789;0.9908194179913006
ID302_F;ECG;-0.03680272761343314;0.8334269752466215;-0.08554377680305245;-0.1909418346345531;0.07704129395934366
 ;EMGZ;-1.2012019598897535e-07;0.009157491912551994;8.907269619818477e-05;-0.006146286558818829;0.006164344225098676
 ;EMGMF;-1.727782938765589e-07;0.009206470685097716;4.501387182658771e-05;-0.006247641431356758;0.00624278825666017
 ;EDA;0.6923265701529069;0.17768743577030574;0.6832762445065319;0.5730981684598982;0.7798831508201347
ID302_H;ECG;-0.01730456906176105;0.26091676666720287;-0.09027619562108688;-0.15157176476456596;0.057416019046731645
 ;EMGZ;-1.9054898765252178e-07;0.00933381793360171;7.498610933724041e-05;-0.006300354617081028;0.006274324807858219
 ;EMGMF;-2.012922502034582e-07;0.00933625353211065;3.248369973684554e-05;-0.0062778768071599066;0.006335401946802304
 ;EDA;1.251308295793768;0.1906576284865361;1.2158520755380529;1.14361881502922;1.3015604970437282
ID303_N;ECG;-0.015642547783689342;0.4411547698890092;-0.07223020364596477;-0.20050766604153727;0.03189874690402571
 ;EMGZ;-5.809779927287028e-08;0.009736819205668514;6.458019801328855e-05;-0.006605587193646525;0.006580567402809482
 ;EMGMF;-1.0513666532501279e-07;0.009703104661792205;4.5993229743396214e-05;-0.006577994222639134;0.006595753764019738
 ;EDA;0.5992270362417389;0.32140162413539014;0.7962920465298067;0.25501358886215153;0.936671308983085
ID303_F;ECG;-0.016444838835889177;0.3651761003444958;-0.04937421700200707;-0.11169397393519076;0.007294763438397162
 ;EMGZ;-9.632156359359285e-08;0.009210063613375652;7.624876314967985e-05;-0.006205729560589952;0.006195077567735931
 ;EMGMF;-1.5165839191616768e-07;0.00931599118617684;2.663369254948464e-05;-0.006287588557567804;0.006298022827270256
 ;EDA;0.5650347234435666;0.17957689145007244;0.5367583460665248;0.3855058350985839;0.747204731909581
ID303_H;ECG;-0.010898114604530128;0.31700238277989745;-0.03172026830262064;-0.08150901364973487;-9.04090232323184e-05
 ;EMGZ;-1.0109715922483729e-07;0.009934529525852854;8.298178344085232e-05;-0.006769862989591427;0.006741062960016479
 ;EMGMF;-8.709903649923832e-08;0.00980830075362313;1.1690339016845031e-05;-0.006666487113014234;0.006697599357325806
 ;EDA;0.289713920013077;0.034008704252879475;0.2906677163326833;0.261962997471333;0.3019253065941263
ID306_F;ECG;-0.010423607411230029;0.2911553667041287;-0.09473299020830775;-0.16270744951980687;0.055566199862580004
 ;EMGZ;-4.322343109643118e-07;0.00991024897934937;5.950380198815972e-05;-0.00671672227716001;0.006677065693827437
 ;EMGMF;-3.757634049686153e-08;0.009886704529673315;4.260607755408267e-05;-0.006726162418998176;0.006741232096785763
 ;EDA;1.2007319950257784;0.32398584793331114;1.050529264220984;0.954964753090038;1.3074657756817607
ID306_H;ECG;-0.006713997234463237;0.3069115852235172;-0.09479249784203479;-0.1735606598320895;0.07532572044824316
 ;EMGZ;-2.1045489989750628e-07;0.009621773805250448;8.844149438350232e-05;-0.006535568244574779;0.006499640595601589
 ;EMGMF;-2.418810132514914e-07;0.009613454296948293;3.233921257572562e-05;-0.006529139057398397;0.006525906861251384
 ;EDA;1.5123151715505216;0.1786232914550332;1.4773364826157123;1.3944987817689676;1.5777074351690947
ID306_N;ECG;-0.005784146398046087;0.31633968265813417;-0.09375002570159056;-0.17135058244349582;0.06828292844944933
 ;EMGZ;-2.123489430200574e-07;0.009334765292986536;6.347103983639791e-05;-0.0062691292404735335;0.006248871623929259
 ;EMGMF;-1.775058807337627e-08;0.00936507866990587;2.9216103289529585e-05;-0.006350287201590472;0.006351565067929898
 ;EDA;0.9140849728148014;0.11892099287447665;0.8916143775709304;0.8323499044639884;0.9712324101354302
ID307_N;ECG;-0.021537749831811063;0.37438439943946067;-0.05801498703092425;-0.13365719996927955;-0.008807487922041439
 ;EMGZ;-7.48824411748923e-09;0.009398057314216723;9.127333500197571e-05;-0.006381123075976919;0.006352267190077195
 ;EMGMF;8.502679554893072e-08;0.009406498343207082;4.750200940431559e-05;-0.006368545950158527;0.006385163667862812
 ;EDA;0.6781499076903856;0.12260970484401061;0.6648649725309217;0.6227794933995318;0.7010758094353013
ID307_H;ECG;-0.0174867246472302;0.3686682155021524;-0.05238906431865757;-0.12363710024458732;-0.00999926277253005
 ;EMGZ;5.3914879973787955e-08;0.009333035604289363;9.741371488186697e-05;-0.006307044142850852;0.00627128928688221
 ;EMGMF;-2.0767074534884044e-07;0.009371040980572072;2.2154128224362692e-05;-0.006322244081691315;0.006347335201488068
 ;EDA;0.3425400196924117;0.14476986004965914;0.3474372836783047;0.21667095057832525;0.3900053917579206
ID307_F;ECG;0.020485585725780273;0.3538896675938492;-0.03124950497122177;-0.11070665501650967;0.03178381840765232
 ;EMGZ;1.4512170487950896e-07;0.009381418600236448;4.867323351537045e-05;-0.006337852400578367;0.006308033518934152
 ;EMGMF;-2.055700029260516e-07;0.009455301513085178;4.2630028449457515e-05;-0.006371960999380316;0.006412043099011818
 ;EDA;0.6468245249887425;0.2966177056314239;0.5801255114782242;0.3582604235933756;0.8910317986604669
ID308_H;ECG;-0.011535306260658133;0.5236367255511666;-0.11874681168220788;-0.21080646897473138;0.056939510819897225
 ;EMGZ;3.375306030728714e-07;0.009885725201085275;7.280610884181156e-05;-0.006737215588520574;0.006689895833034094
 ;EMGMF;3.4491748971899655e-07;0.009827303708315218;2.9544630578091534e-05;-0.006680868844168393;0.006694735154453703
 ;EDA;0.6396314741321968;0.1019485037595351;0.6176253297479721;0.5427738728498269;0.7421778248549477
ID308_F;ECG;-0.01044354576051936;0.4529977980781445;-0.1151626787839878;-0.20122727019135717;0.04349414437259416
 ;EMGZ;4.5841988332218306e-07;0.009442438550151686;6.592545491830365e-05;-0.0064049252233764654;0.006372855226174106
 ;EMGMF;7.724851407248831e-08;0.00947481485156269;5.478657857405501e-05;-0.006404886142723471;0.0064143982112943865
 ;EDA;2.035456761676283;0.2507498176526733;2.103109600364994;1.7951289486425432;2.2079688877998933
ID308_N;ECG;-0.014634862706821516;0.4114033511475893;-0.12450358291330295;-0.20411184197496554;0.036469982099324116
 ;EMGZ;9.707707858318103e-08;0.00970236030835697;8.34263203286674e-05;-0.0066116804292505734;0.006553606914915869
 ;EMGMF;2.628100568967471e-07;0.009694857801810534;5.216926641179922e-05;-0.006571250224899251;0.006575082867024044
 ;EDA;0.7585965469363327;0.4431490391492694;0.5477383399832547;0.5230163997911164;1.2147309383041651
ID309_F;ECG;-0.0077998520341563925;0.3118897624025582;-0.07159646485923316;-0.13603215285541193;0.010541271979346591
 ;EMGZ;-5.052788042417203e-07;0.009630138322748606;8.359041463932085e-05;-0.006530180335219775;0.006528997890278771
 ;EMGMF;-6.588921146634634e-07;0.009722656365998983;3.309297587622469e-05;-0.0065961483424886985;0.006612673426005647
 ;EDA;0.20334737102916298;0.18384910886930494;0.03247778898099758;0.03057015685071536;0.3555995596827172
ID309_H;ECG;-0.009299816251753051;0.25720184968300686;-0.06470757144589703;-0.12612516573912141;0.018215113695264268
 ;EMGZ;4.11610604032044e-07;0.009669132990041067;8.338329805346334e-05;-0.0065483182600528525;0.006542307209609567
 ;EMGMF;5.392598369635075e-07;0.00965324999751469;2.5842822935766177e-05;-0.006543890090507038;0.0065844593948296915
 ;EDA;0.08275013962506583;0.019431216167327292;0.06641665565325955;0.06368121025548219;0.10051987352330695
ID309_N;ECG;-0.012537553978812673;0.3229880779737528;-0.07355594978761193;-0.1406120238601688;0.005227465318937111
 ;EMGZ;-1.948389024958094e-07;0.009985896140611142;5.900601206508836e-05;-0.0068147743674012535;0.006766582946923251
 ;EMGMF;-2.580270560581261e-07;0.009968469466020832;1.4714885303515699e-05;-0.006775224279918112;0.0067717118359915274
 ;EDA;0.059846071398843896;0.005201768407107518;0.06136263733982299;0.054782573853710576;0.06531495398150425
ID311_N;ECG;-0.0016429775902899592;0.2790738559633467;-0.05726986590423676;-0.15021038366780048;0.13024506894388707
 ;EMGZ;1.2084709613734946e-07;0.009284505333427498;7.026319411782044e-05;-0.006281876503483864;0.006268167589805484
 ;EMGMF;2.8485115867762173e-07;0.009271437709117725;3.734394437547844e-05;-0.006241669650386929;0.006293741633709894
 ;EDA;1.3482521795801439;0.2783185126062642;1.2572832643007668;1.189626055888108;1.3389745001584392
ID311_F;ECG;-0.006839405951732472;0.2763843589520708;-0.06540069565053391;-0.14823745856567241;0.10216954740452072
 ;EMGZ;-9.773425661742154e-10;0.00891704963791337;5.9171850143646025e-05;-0.005973457865227024;0.005941827668360403
 ;EMGMF;-1.1359650119181744e-07;0.008994655664912504;2.424142710220125e-05;-0.00608420626848592;0.006083908175336321
 ;EDA;0.9727812402808176;0.2662066593598656;0.8322173827952931;0.7058628534076123;1.2167284759557488
ID311_H;ECG;-0.004215258407626659;0.4053838448346243;-0.057516213225251064;-0.15237622846522092;0.13088619328249446
 ;EMGZ;1.297685545657211e-07;0.009512814278123326;6.006828028876955e-05;-0.006417776911276349;0.006429721215940376
 ;EMGMF;-3.802315425799188e-08;0.009547664414425717;4.097269859712005e-05;-0.006456974175246044;0.006503258775921913
 ;EDA;0.8025394059438706;0.27188074445707977;0.7923826285328501;0.524022050358121;0.8381478220828981
ID312_N;ECG;-0.01235840030354068;0.33253191036493307;-0.09609901963067363;-0.16031813919153165;0.028650526556881016
 ;EMGZ;2.832169014626194e-07;0.009384925352333935;6.866381345251596e-05;-0.00634553719535114;0.006327016286974116
 ;EMGMF;9.742029642348138e-09;0.009485176740925918;1.4440933731616444e-05;-0.006398635287825978;0.006463255986148809
 ;EDA;0.4351230594552316;0.025307840104596413;0.42974187899658145;0.41473175499322706;0.450459816657782
ID312_F;ECG;-0.022430500503180836;0.38873152503120867;-0.09853245692465934;-0.17819731361354493;0.042980401623407265
 ;EMGZ;-6.892993190459791e-08;0.009366958924575064;7.737752229167519e-05;-0.006231934210026848;0.006232160963243279
 ;EMGMF;1.151970286707274e-07;0.009385397005603592;2.6530571639008324e-05;-0.006357020892519768;0.006369893058166615
 ;EDA;0.7982848940280105;0.09029782624974769;0.7805998871157827;0.7220419021971383;0.8553402603146116
ID312_H;ECG;-0.012773691128566815;0.376717244174859;-0.09074232508156385;-0.1746144827756968;0.03161226380687236
 ;EMGZ;-4.6861651800610705e-07;0.009400464969336926;5.544860767959213e-05;-0.006382757651810366;0.006338103275564417
 ;EMGMF;-4.569860367950868e-07;0.009381535392443859;3.1898391669287184e-05;-0.006370481390016117;0.006371707629283136
 ;EDA;0.7243560846860401;0.04793517061082755;0.7232929384787428;0.6845238370455675;0.7621167628538026
ID314_F;ECG;-0.010225572964874844;0.41767060216224444;-0.09338240315132576;-0.2146454325049058;0.09957280462083237
 ;EMGZ;2.443866889475181e-07;0.009618697794805823;7.760505236961972e-05;-0.0065348512297064235;0.006494464698575945
 ;EMGMF;2.3005138564425661e-07;0.009689092442842695;2.0126318030230708e-05;-0.006555089964875216;0.006612808173296358
 ;EDA;1.8461371352401799;0.2880911809147641;1.761128179229578;1.5507653891341917;2.1160153054229065
ID314_H;ECG;-0.0035722624957418582;0.304643236428083;-0.08030727575343694;-0.14767247303250508;0.060854471041706285
 ;EMGZ;2.031315745145579e-07;0.00981349176831823;7.599052248328099e-05;-0.006670444540603117;0.006641810657304494
 ;EMGMF;-2.288839050016718e-07;0.009775242031155438;3.234861475711519e-05;-0.006643224280434047;0.0066524993721166995
 ;EDA;0.5891116801263696;0.14953449663893562;0.4895120138863893;0.4380389814560012;0.7349880761167193
ID314_N;ECG;-0.006704541417825263;0.37037673240686464;-0.10637450481472327;-0.18626767368837338;0.06917043837012728
 ;EMGZ;7.240566342679432e-08;0.010136928890084463;8.814195912870216e-05;-0.00691704606233902;0.006893119488553692
 ;EMGMF;1.4546864753025828e-07;0.010007213051408921;3.875255056286068e-05;-0.006805113215308779;0.006814251788903091
 ;EDA;1.1087921294611003;0.367666972107817;0.954153225379231;0.7406994283843161;1.4648900192727674
ID315_H;ECG;-0.008795711635560017;0.4623691373225912;-0.11987260823058647;-0.197673859836702;0.051104030647273965
 ;EMGZ;-1.885159585919843e-07;0.01009203748242105;8.094931248907051e-05;-0.006885166707325995;0.006861427453354756
 ;EMGMF;3.643739272699553e-07;0.00997643328247927;3.9888861251813134e-05;-0.006792722738745012;0.006786668948254476
 ;EDA;0.46131192192371034;0.031984623337092274;0.460830454736435;0.4415187725697751;0.47633463865068076
ID315_F;ECG;-0.011128512678700957;0.5294308042603421;-0.13926730976979812;-0.21144674754447473;0.05521530223766712
 ;EMGZ;1.7945707126325856e-07;0.009568176688842687;7.600218209304406e-05;-0.0065055682056309235;0.006451407381792008
 ;EMGMF;-1.2941365565800335e-07;0.009576486742872991;6.363553607179328e-05;-0.006473398344848264;0.006498745206897442
 ;EDA;0.473111823271562;0.05189825713740716;0.466846819676088;0.4444597304463402;0.4854958526763892
ID315_N;ECG;-0.00662173326988801;0.4912916383969794;-0.0827748301314487;-0.1758973660568942;0.07795682184621094
 ;EMGZ;2.1387046014243237e-07;0.009718656547077601;6.238995580897064e-05;-0.006507838058720808;0.00648169393813679
 ;EMGMF;-2.2136147681110107e-07;0.009562954619203066;6.36334972667137e-05;-0.0064957580429333885;0.006482778842121183
 ;EDA;0.38538978364239773;0.0224476476368386;0.3866183035754398;0.37600932884490446;0.4018084843181904
ID316_F;ECG;-0.00862429134158197;0.4438942341045153;-0.1007229889376498;-0.18704767897896885;0.04959069268509953
 ;EMGZ;1.6123968456426426e-07;0.008996841697263332;5.93880257544199e-05;-0.006081728287441316;0.00606311601498653
 ;EMGMF;9.145994780283887e-09;0.0090234061547817;1.5049158084305897e-05;-0.00607707044294217;0.006127976419130932
 ;EDA;1.5614790778937204;0.12187343529713823;1.5713727417671475;1.4633668534579993;1.6473389065487063
ID316_N;ECG;-0.017678298530419485;0.42196384006634297;-0.11122807963562406;-0.19682473323617705;0.017102988026664098
 ;EMGZ;-8.180697307264543e-08;0.008878788477587569;6.606217260765991e-05;-0.005949824665071869;0.005939494161613532
 ;EMGMF;2.235561676590173e-08;0.008938833614264402;1.7167017194355972e-05;-0.006030081938940029;0.0060359305417864405
 ;EDA;0.47209389864383816;0.18743113233163922;0.442903681625219;0.31427101040938843;0.5633611711932958
ID316_H;ECG;-0.022061361466393713;0.43094145882876544;-0.10119420807647003;-0.20657064642370093;0.0336504867483643
 ;EMGZ;-5.172089271692329e-07;0.008969072478929585;6.346423812397415e-05;-0.006020123795774315;0.006024635344816966
 ;EMGMF;-1.923920112269254e-07;0.009065196108938352;3.302139848598032e-05;-0.006101545167548274;0.006141111696687407
 ;EDA;0.6442231105403621;0.26693590621801017;0.44987693404433915;0.3924041611090792;0.8709878036626912
ID317_F;ECG;-0.011911176914914518;0.34897440960195625;-0.05157659601931473;-0.13056790749080616;0.05383628401615037
 ;EMGZ;-2.906213567276996e-07;0.009456528991301585;6.742050267262184e-05;-0.006421063596082672;0.006398464343957211
 ;EMGMF;-3.7678522334566775e-07;0.00945778807845322;3.675862709400609e-05;-0.006393782774213283;0.006392826617298904
 ;EDA;1.3931488366129405;0.4530452243977666;1.4743770386571993;1.1701643263532504;1.7317256837694657
ID317_N;ECG;-0.006991846348689577;0.2831941328001462;-0.05803075205828877;-0.12178407677082662;0.052596112501265876
 ;EMGZ;-2.379851911206406e-07;0.009273614394273237;6.975077153276816e-05;-0.006257999278345477;0.0062338994904876325
 ;EMGMF;8.369348349734196e-08;0.00919786881438012;2.7225404389337416e-05;-0.006192847530024445;0.006213068514940493
 ;EDA;0.8635732769465068;0.4391744958439787;1.101130781854218;0.4161945391869298;1.2984387932659096
ID317_H;ECG;-0.013403892920704518;0.3319206086422661;-0.04286920213379018;-0.10570876857516777;0.05568680767447255
 ;EMGZ;-2.0578263026396725e-07;0.009239939605927058;7.658683556895627e-05;-0.006243415341846989;0.006205348924613902
 ;EMGMF;4.789629100193256e-07;0.009257946658356024;4.5214666555768064e-05;-0.006258869139338781;0.006250045473966841
 ;EDA;0.28341390141453326;0.25831416999005524;0.255894885203116;-0.01602470388305261;0.3453492911683995
ID318_H;ECG;-0.010431203918605119;0.31011657292485334;-0.061604765367764214;-0.11307474147549207;-0.004410832091180681
 ;EMGZ;-2.209126563311276e-07;0.009156003973790147;6.855426350069616e-05;-0.006168132215741102;0.006129433732549578
 ;EMGMF;6.006375718252735e-08;0.009266460837875511;1.793224864939612e-05;-0.006286421891389933;0.006298744324897807
 ;EDA;0.45478509856089355;0.09452659787224711;0.4937367252719199;0.3453937302405774;0.5332006900796713
ID318_N;ECG;0.00010709055627991603;0.27877336629216787;-0.0452464574634891;-0.10636941192757329;0.0244853616534927
 ;EMGZ;-4.941321578957595e-07;0.009761381943238164;7.165681633854604e-05;-0.0066227916738932045;0.006594516955645589
 ;EMGMF;-1.0736544760407095e-07;0.00969670363506272;3.166029053068694e-05;-0.00660538089484453;0.006616028349286313
 ;EDA;0.528580485710493;0.19326321555694895;0.4566167525591238;0.38371472674687174;0.5983936119475634
ID318_F;ECG;-0.018345015649617307;0.5902075072774545;-0.06522944491176394;-0.1572871586995288;0.05497400071075598
 ;EMGZ;-2.310986071908923e-07;0.009293097237795641;4.972392030433339e-05;-0.00628479742894511;0.006253701681195502
 ;EMGMF;-2.433326406247622e-07;0.009384828161798102;5.5604821085498534e-05;-0.006342762123119888;0.006358914044691883
 ;EDA;0.2849283569849084;0.0648655093168565;0.29992538159425636;0.2210853699029986;0.33388007352788873
ID319_H;ECG;-0.009889635606048212;0.27446438078444196;-0.06636779291751732;-0.12510413115371402;0.04322314295975803
 ;EMGZ;-2.9682179325291035e-07;0.009172150499030854;7.201502531798537e-05;-0.00617186879830702;0.00614589181346613
 ;EMGMF;1.8194076592870256e-07;0.00923326772717895;3.528334767510062e-05;-0.006221107913059091;0.0062744570741103695
 ;EDA;0.6880798839093946;0.09894652032157315;0.6427093855905397;0.5982454771085705;0.787430426650578
ID319_N;ECG;-0.001329680398065744;0.30288989043681536;-0.07155831592394334;-0.13039732135493382;0.046458798200120936
 ;EMGZ;-1.3294741993614938e-07;0.009496769001814401;5.770993972264299e-05;-0.006418944953661474;0.0063765664697025895
 ;EMGMF;1.1133265405908808e-07;0.009535918965480944;3.6418859804156965e-05;-0.0064651092593562155;0.006479792440421057
 ;EDA;0.5423796888945402;0.11178107304804084;0.5209264227703512;0.44822319962358137;0.6479942677474566
ID319_F;ECG;-0.01406398711017285;0.4456998335113428;-0.11940059063327282;-0.20238216962471617;0.04278757213676103
 ;EMGZ;3.1740912557851565e-07;0.00984728961323354;8.86463781635073e-05;-0.006706675853883659;0.006679998633257956
 ;EMGMF;3.0433687958136556e-07;0.009806469076024133;1.5226531755139927e-05;-0.006628220347323823;0.0066581015275392445
 ;EDA;1.304295944473617;0.30664210988673046;1.204551930514302;1.0117644258416623;1.5592854851074864
